Nom
Date de naissance
Date d’enregistrement,2022-02-27 15:57:03 +0100
Classification,Rythme sinusal
Symptômes,
Version du logiciel,1.52
Appareil,"Watch5,1"
Fréquence d’échantillonnage,511,242 hertz


Dérivation,Dérivation DI
Unité,µV

288,871
373,308
335,766
270,725
239,663
220,405
198,492
186,528
183,393
177,963
167,844
154,795
140,684
127,463
115,001
102,107
88,321
73,719
58,623
43,718
29,672
16,952
6,154
-2,196
-8,486
-13,915
-19,802
-27,73
-37,937
-48,826
-59,467
-69,861
-82,189
-99,818
-122,021
-142,066
-148,248
-130,594
-86,133
-20,767
52,705
126,989
200,161
269,89
334,299
381,026
390,298
351,761
261,823
126,816
-32,348
-196,268
-346,312
-461,566
-533,075
-560,803
-552,003
-525,068
-496,316
-473,861
-460,513
-452,434
-444,579
-436,993
-431,871
-431,962
-439,943
-454,833
-473,449
-493,099
-511,506
-527,444
-540,689
-551,032
-558,134
-562,49
-565,328
-567,665
-570,339
-573,782
-577,904
-582,652
-588,164
-594,282
-600,562
-606,687
-612,37
-617,407
-621,811
-625,732
-629,288
-632,391
-635,098
-637,514
-639,377
-641,799
-645,816
-650,068
-654,188
-655,636
-651,372
-644,897
-638,552
-635,797
-641,354
-651,089
-661,471
-670,05
-672,792
-672,498
-672
-671,869
-673,788
-676,66
-679,097
-681,278
-682,958
-684,148
-685,024
-685,334
-684,876
-683,631
-681,585
-678,717
-675,03
-670,543
-665,276
-659,279
-652,619
-645,326
-637,426
-628,972
-620,024
-610,653
-600,96
-591,03
-580,937
-570,765
-560,572
-550,399
-540,295
-530,29
-520,408
-510,674
-501,099
-491,69
-482,458
-473,406
-464,523
-455,793
-447,177
-438,647
-430,185
-421,771
-413,4
-405,071
-396,783
-388,539
-380,351
-372,226
-364,18
-356,231
-348,395
-340,696
-333,166
-325,841
-318,766
-311,977
-305,497
-299,344
-293,518
-288,019
-282,843
-277,988
-273,459
-269,256
-265,374
-261,803
-258,53
-255,531
-252,768
-250,194
-247,745
-245,372
-243,038
-240,728
-238,449
-236,213
-234,04
-231,942
-229,921
-227,989
-226,168
-224,481
-222,958
-221,648
-220,612
-219,939
-219,746
-220,125
-221,145
-222,841
-225,216
-228,261
-231,954
-236,267
-241,165
-246,589
-252,464
-258,707
-265,219
-271,876
-278,535
-285,002
-291,061
-296,518
-301,208
-305,001
-307,799
-309,515
-310,076
-309,434
-307,573
-304,505
-300,272
-294,929
-288,562
-281,286
-273,248
-264,648
-255,703
-246,614
-237,569
-228,726
-220,221
-212,188
-204,753
-198,01
-192,021
-186,823
-182,427
-178,828
-175,996
-173,866
-172,352
-171,324
-170,646
-170,188
-169,82
-169,434
-168,936
-168,234
-167,242
-165,895
-164,146
-161,963
-159,334
-156,25
-152,722
-148,775
-144,453
-139,816
-134,931
-129,864
-124,684
-119,449
-114,201
-108,985
-103,837
-98,784
-93,848
-89,045
-84,378
-79,856
-75,48
-71,248
-67,153
-63,181
-59,315
-55,537
-51,827
-48,171
-44,559
-40,984
-37,443
-33,935
-30,458
-27,015
-23,609
-20,244
-16,918
-13,632
-10,386
-7,178
-4,01
-0,884
2,2
5,243
8,245
11,21
14,14
17,04
19,912
22,762
25,595
28,414
31,223
34,022
36,814
39,598
42,377
45,15
47,914
50,668
53,409
56,134
58,839
61,519
64,168
66,783
69,357
71,884
74,361
76,78
79,135
81,418
83,619
85,73
87,742
89,647
91,438
93,107
94,652
96,067
97,35
98,494
99,488
100,324
100,993
101,486
101,8
101,933
101,889
101,681
101,324
100,838
100,244
99,558
98,791
97,959
97,078
96,175
95,285
94,444
93,682
93,029
92,511
92,14
91,909
91,79
91,733
91,7
91,666
91,606
91,484
91,259
90,877
90,265
89,383
88,155
86,44
84,209
81,535
78,599
75,79
73,498
71,951
71,492
72,553
75,136
79,002
83,618
87,791
90,615
91,676
90,249
85,799
78,761
69,99
61,048
54,743
53,391
58,83
73,729
100,362
138,448
185,765
239,448
295,205
353,078
417,547
487,687
558,813
620,36
654,705
651,936
612,144
541,394
452,617
358,638
267,84
189,158
132,131
102,206
101,084
124,132
160,389
198,197
227,72
243,871
245,135
234,529
219,035
203,427
192,308
186,971
183,658
180,614
176,609
171,274
166,832
164,1
162,626
162,045
161,434
160,113
158,124
155,51
152,248
148,476
144,3
139,766
135,01
130,168
125,315
120,549
115,978
111,675
107,725
104,233
101,289
98,976
97,35
96,438
96,248
96,777
98,02
99,96
102,55
105,718
109,376
113,417
117,743
122,246
126,802
131,276
135,542
139,487
143,02
146,066
148,558
150,455
151,729
152,377
152,428
151,931
150,957
149,597
147,934
146,059
144,081
142,115
140,285
138,703
137,464
136,658
136,371
136,663
137,58
139,139
141,334
144,144
147,53
151,436
155,821
160,644
165,851
171,386
177,171
183,12
189,171
195,252
201,293
207,237
213,028
218,619
223,989
229,113
233,964
238,523
242,736
246,535
249,861
252,653
254,879
256,515
257,519
257,851
257,487
256,399
254,577
252,021
248,698
244,593
239,713
234,074
227,742
220,808
213,354
205,463
197,216
188,69
179,995
171,253
162,56
154,009
145,679
137,633
129,966
122,765
116,08
109,948
104,372
99,335
94,833
90,867
87,41
84,43
81,857
79,595
77,566
75,695
73,908
72,149
70,335
68,39
66,268
63,924
61,318
58,415
55,162
51,497
47,393
42,828
37,806
32,363
26,535
20,368
13,911
7,2
0,284
-6,788
-13,977
-21,225
-28,456
-35,587
-42,511
-49,114
-55,303
-60,974
-66,035
-70,426
-74,102
-77,036
-79,214
-80,601
-81,175
-80,931
-79,874
-78,049
-75,527
-72,397
-68,773
-64,785
-60,559
-56,249
-52,013
-47,973
-44,236
-40,892
-38,018
-35,71
-34,055
-33,112
-32,922
-33,491
-34,797
-36,803
-39,451
-42,653
-46,312
-50,306
-54,493
-58,758
-63,009
-67,164
-71,159
-74,922
-78,385
-81,507
-84,262
-86,632
-88,617
-90,229
-91,485
-92,43
-93,13
-93,667
-94,155
-94,7
-95,377
-96,242
-97,331
-98,656
-100,232
-102,048
-104,069
-106,266
-108,605
-111,039
-113,533
-116,035
-118,464
-120,719
-122,668
-124,16
-125,085
-125,364
-124,931
-123,763
-121,841
-119,17
-115,811
-111,829
-107,295
-102,289
-96,887
-91,174
-85,281
-79,367
-73,615
-68,233
-63,393
-59,242
-55,926
-53,562
-52,254
-52,077
-53,039
-55,122
-58,3
-62,541
-67,8
-74,007
-81,035
-88,709
-96,848
-105,246
-113,713
-122,068
-130,106
-137,635
-144,47
-150,459
-155,5
-159,513
-162,416
-164,124
-164,575
-163,743
-161,67
-158,452
-154,193
-149,019
-143,064
-136,476
-129,433
-122,109
-114,666
-107,239
-99,936
-92,863
-86,144
-79,922
-74,321
-69,441
-65,315
-61,93
-59,255
-57,234
-55,8
-54,865
-54,338
-54,142
-54,229
-54,575
-55,154
-55,948
-56,928
-58,05
-59,266
-60,526
-61,816
-63,196
-64,85
-66,923
-69,411
-72,21
-75,049
-77,617
-79,669
-80,839
-80,527
-78,356
-74,505
-69,539
-64,522
-60,797
-59,448
-61,551
-68,452
-79,733
-92,749
-104,96
-114,084
-120,958
-128,97
-137,224
-138,907
-121,3
-73,102
6,848
109,995
218,976
320,997
414,746
499,561
577,722
644,314
680,036
673,586
618,303
513,979
380,847
238,339
106,411
8,587
-49,515
-70,254
-63,147
-48,509
-36,602
-30,437
-29,208
-25,445
-17,66
-8,745
-1,046
1,738
-1,2
-7,858
-16,602
-25,506
-32,54
-36,824
-38,027
-36,026
-31,327
-24,58
-16,3
-7,167
2,039
10,867
19,089
26,595
33,499
39,879
45,707
51,006
55,78
59,971
63,543
66,459
68,659
70,146
70,956
71,126
70,711
69,755
68,264
66,259
63,769
60,835
57,538
53,974
50,264
46,562
42,998
39,697
36,762
34,259
32,235
30,731
29,778
29,411
29,688
30,648
32,305
34,652
37,644
41,224
45,312
49,795
54,56
59,493
64,497
69,514
74,504
79,422
84,224
88,851
93,225
97,297
101,035
104,428
107,483
110,206
112,61
114,731
116,61
118,289
119,79
121,093
122,172
123,017
123,632
124,052
124,329
124,492
124,562
124,554
124,473
124,346
124,203
124,062
123,943
123,871
123,89
124,085
124,543
125,321
126,451
127,931
129,734
131,845
134,247
136,911
139,806
142,875
146,044
149,242
152,388
155,388
158,13
160,467
162,243
163,339
163,662
163,152
161,772
159,483
156,26
152,106
147,031
141,079
134,314
126,811
118,663
109,992
100,939
91,681
82,412
73,303
64,497
56,115
48,26
41,035
34,526
28,794
23,885
19,823
16,614
14,257
12,719
11,935
11,809
12,208
12,973
13,955
15,033
16,101
17,066
17,841
18,349
18,531
18,34
17,735
16,679
15,133
13,083
10,548
7,576
4,252
0,686
-3,011
-6,749
-10,453
-14,061
-17,52
-20,783
-23,82
-26,604
-29,111
-31,306
-33,146
-34,6
-35,654
-36,319
-36,63
-36,64
-36,407
-35,98
-35,402
-34,704
-33,908
-33,032
-32,085
-31,071
-29,994
-28,869
-27,721
-26,572
-25,442
-24,339
-23,263
-22,207
-21,16
-20,111
-19,052
-17,98
-16,894
-15,801
-14,708
-13,628
-12,574
-11,555
-10,576
-9,641
-8,752
-7,911
-7,123
-6,392
-5,726
-5,13
-4,61
-4,173
-3,824
-3,565
-3,399
-3,325
-3,344
-3,452
-3,649
-3,934
-4,305
-4,762
-5,304
-5,929
-6,637
-7,426
-8,292
-9,234
-10,249
-11,331
-12,477
-13,684
-14,948
-16,266
-17,633
-19,048
-20,506
-22,006
-23,545
-25,12
-26,728
-28,366
-30,032
-31,721
-33,431
-35,157
-36,896
-38,642
-40,392
-42,141
-43,886
-45,621
-47,344
-49,051
-50,738
-52,404
-54,043
-55,653
-57,229
-58,767
-60,263
-61,715
-63,119
-64,469
-65,763
-66,995
-68,165
-69,271
-70,306
-71,266
-72,141
-72,926
-73,62
-74,227
-74,749
-75,194
-75,571
-75,894
-76,186
-76,468
-76,756
-77,06
-77,384
-77,737
-78,13
-78,577
-79,095
-79,684
-80,335
-81,033
-81,762
-82,49
-83,182
-83,783
-84,225
-84,453
-84,427
-84,125
-83,535
-82,644
-81,432
-79,876
-77,961
-75,698
-73,109
-70,228
-67,097
-63,774
-60,338
-56,895
-53,556
-50,416
-47,546
-44,989
-42,782
-40,963
-39,584
-38,727
-38,457
-38,821
-39,846
-41,528
-43,86
-46,845
-50,449
-54,594
-59,209
-64,205
-69,571
-75,421
-81,723
-88,321
-94,992
-101,322
-106,958
-111,68
-114,997
-116,263
-115,362
-112,495
-108,124
-103,203
-98,451
-94,488
-92,644
-94,284
-98,367
-102,139
-103,256
-99,716
-94,196
-91,872
-91,744
-88,16
-71,236
-29,172
41,114
134,484
243,094
356,094
462,291
552,563
615,819
640,516
622,724
563,056
467,144
349,907
225,179
107,337
13,159
-50,317
-82,485
-88,266
-81,957
-75,891
-75,153
-81,772
-91,915
-98,112
-98,778
-93,957
-83,987
-74,126
-66,614
-61,181
-58,976
-58,432
-58,051
-58,132
-58,051
-57,097
-55,38
-52,949
-49,762
-46,113
-42,092
-37,382
-32,185
-27,229
-22,899
-19,43
-17,007
-15,5
-14,913
-15,499
-17,181
-19,593
-22,449
-25,446
-28,353
-31,133
-33,701
-35,907
-37,708
-39,103
-40,093
-40,706
-40,934
-40,732
-40,09
-39,017
-37,534
-35,695
-33,558
-31,192
-28,687
-26,128
-23,576
-21,075
-18,647
-16,307
-14,07
-11,95
-9,955
-8,089
-6,355
-4,755
-3,29
-1,956
-0,738
0,386
1,447
2,479
3,503
4,538
5,595
6,682
7,809
8,98
10,199
11,464
12,777
14,141
15,561
17,041
18,583
20,182
21,837
23,54
25,285
27,069
28,886
30,73
32,596
34,479
36,375
38,279
40,185
42,085
43,969
45,825
47,639
49,399
51,092
52,706
54,229
55,649
56,955
58,139
59,192
60,103
60,863
61,456
61,871
62,103
62,151
62,016
61,708
61,233
60,599
59,822
58,91
57,87
56,703
55,4
53,951
52,355
50,616
48,751
46,773
44,687
42,493
40,191
37,772
35,23
32,555
29,723
26,722
23,56
20,26
16,867
13,439
10,015
6,624
3,291
0,028
-3,135
-6,17
-9,055
-11,758
-14,247
-16,484
-18,408
-19,977
-21,177
-22,016
-22,532
-22,782
-22,806
-22,635
-22,3
-21,822
-21,227
-20,545
-19,788
-18,977
-18,141
-17,313
-16,551
-15,9
-15,381
-15,001
-14,742
-14,571
-14,468
-14,417
-14,398
-14,399
-14,411
-14,423
-14,44
-14,466
-14,494
-14,513
-14,5
-14,434
-14,303
-14,105
-13,841
-13,523
-13,155
-12,74
-12,286
-11,793
-11,261
-10,685
-10,056
-9,359
-8,586
-7,732
-6,792
-5,767
-4,653
-3,446
-2,143
-0,74
0,765
2,374
4,09
5,913
7,841
9,872
11,998
14,213
16,509
18,877
21,308
23,794
26,325
28,891
31,482
34,09
36,703
39,312
41,905
44,472
47,001
49,481
51,902
54,253
56,523
58,703
60,784
62,756
64,613
66,347
67,952
69,422
70,753
71,94
72,982
73,876
74,62
75,215
75,662
75,963
76,119
76,135
76,014
75,762
75,384
74,886
74,275
73,558
72,741
71,832
70,84
69,772
68,638
67,445
66,203
64,919
63,604
62,265
60,912
59,553
58,196
56,849
55,519
54,213
52,938
51,701
50,506
49,36
48,267
47,233
46,262
45,357
44,523
43,762
43,079
42,474
41,95
41,506
41,142
40,857
40,649
40,515
40,45
40,45
40,513
40,636
40,816
41,047
41,327
41,65
42,012
42,408
42,83
43,269
43,715
44,163
44,609
45,053
45,492
45,919
46,326
46,704
47,042
47,324
47,532
47,638
47,617
47,458
47,158
46,722
46,155
45,458
44,631
43,676
42,601
41,418
40,141
38,781
37,367
35,949
34,589
33,374
32,378
31,648
31,22
31,112
31,336
31,909
32,83
34,085
35,65
37,504
39,625
41,98
44,488
47,027
49,45
51,596
53,339
54,571
55,175
55,052
54,104
52,244
49,463
45,717
40,901
35,042
28,259
20,847
13,416
6,57
0,773
-3,362
-5,27
-4,868
-2,286
1,731
5,672
8,285
8,536
5,291
-1,944
-12,598
-25,59
-38,615
-47,975
-50,32
-42,189
-19,678
18,4
70,239
134,116
206,475
286,195
376,845
475,53
574,184
658,917
709,107
713,878
673,346
594,239
489,852
371,115
245,87
125,818
25,67
-43,436
-76,143
-78,228
-65,906
-51,435
-41,425
-36,486
-30,673
-22,243
-13,047
-5,258
-2,469
-5,475
-12,452
-21,691
-31,086
-38,73
-43,918
-46,411
-46,241
-43,978
-40,302
-35,825
-31,274
-27,359
-24,437
-22,632
-21,941
-22,173
-23,165
-24,808
-26,936
-29,382
-32,024
-34,762
-37,516
-40,225
-42,792
-45,104
-47,079
-48,661
-49,826
-50,576
-50,924
-50,888
-50,496
-49,787
-48,798
-47,563
-46,115
-44,48
-42,685
-40,765
-38,758
-36,708
-34,659
-32,638
-30,665
-28,75
-26,894
-25,104
-23,392
-21,764
-20,224
-18,785
-17,458
-16,272
-15,267
-14,473
-13,912
-13,595
-13,511
-13,651
-14,008
-14,567
-15,312
-16,219
-17,235
-18,317
-19,427
-20,517
-21,542
-22,44
-23,124
-23,524
-23,586
-23,268
-22,563
-21,473
-19,985
-18,111
-15,863
-13,256
-10,346
-7,192
-3,84
-0,356
3,196
6,738
10,159
13,353
16,247
18,775
20,909
22,636
23,919
24,73
25,045
24,821
24,057
22,757
20,913
18,538
15,656
12,296
8,531
4,44
0,067
-4,556
-9,425
-14,561
-19,946
-25,551
-31,349
-37,278
-43,295
-49,354
-55,385
-61,336
-67,172
-72,864
-78,418
-83,856
-89,166
-94,322
-99,281
-103,972
-108,358
-112,423
-116,148
-119,545
-122,635
-125,448
-128,05
-130,495
-132,817
-135,043
-137,18
-139,217
-141,173
-143,068
-144,935
-146,822
-148,764
-150,783
-152,907
-155,143
-157,487
-159,918
-162,396
-164,879
-167,348
-169,788
-172,197
-174,58
-176,933
-179,255
-181,546
-183,793
-185,988
-188,121
-190,177
-192,153
-194,049
-195,874
-197,648
-199,388
-201,105
-202,806
-204,494
-206,166
-207,817
-209,437
-211,01
-212,531
-213,998
-215,414
-216,787
-218,124
-219,425
-220,7
-221,949
-223,166
-224,342
-225,458
-226,492
-227,435
-228,28
-229,033
-229,7
-230,277
-230,756
-231,127
-231,371
-231,47
-231,406
-231,146
-230,668
-229,973
-229,073
-228,007
-226,826
-225,563
-224,245
-222,891
-221,515
-220,143
-218,804
-217,52
-216,324
-215,249
-214,336
-213,647
-213,228
-213,098
-213,256
-213,672
-214,295
-215,097
-216,052
-217,138
-218,342
-219,645
-221,026
-222,478
-223,986
-225,531
-227,085
-228,598
-230,031
-231,368
-232,608
-233,768
-234,884
-235,975
-237,056
-238,146
-239,253
-240,384
-241,546
-242,732
-243,933
-245,149
-246,387
-247,664
-248,995
-250,382
-251,822
-253,303
-254,807
-256,32
-257,829
-259,318
-260,777
-262,2
-263,582
-264,928
-266,247
-267,542
-268,813
-270,061
-271,283
-272,479
-273,65
-274,792
-275,908
-276,998
-278,067
-279,124
-280,175
-281,219
-282,255
-283,28
-284,282
-285,252
-286,171
-287,013
-287,759
-288,398
-288,924
-289,343
-289,662
-289,883
-290,011
-290,049
-289,998
-289,866
-289,659
-289,379
-289,042
-288,677
-288,328
-288,065
-287,948
-288,014
-288,292
-288,786
-289,491
-290,396
-291,48
-292,704
-294,041
-295,462
-296,936
-298,448
-299,956
-301,391
-302,666
-303,652
-304,22
-304,268
-303,709
-302,476
-300,546
-297,903
-294,563
-290,574
-285,968
-280,777
-275,042
-268,787
-262,068
-254,969
-247,592
-240,086
-232,632
-225,414
-218,624
-212,423
-206,891
-202,081
-198,048
-194,834
-192,543
-191,229
-190,837
-191,402
-193,077
-196,132
-200,867
-207,352
-215,304
-224,412
-234,627
-245,762
-257,344
-268,432
-277,667
-284,159
-287,891
-289,165
-287,949
-284,361
-278,991
-273,307
-269,884
-270,768
-276,533
-286,971
-301,875
-320,699
-342,192
-363,8
-381,079
-389,65
-386,647
-369,98
-337,863
-289,029
-222,908
-141,814
-51,759
41,062
130,707
215,152
296,711
373,17
440,86
491,276
508,124
484,06
415,921
304,728
167,76
21,64
-114,939
-217,788
-278,727
-298,214
-285,547
-262,464
-241,914
-229,016
-223,416
-217,314
-208,256
-198,211
-189,468
-185,888
-188,207
-194,334
-202,514
-210,523
-216,335
-219,224
-218,794
-214,928
-208,148
-199,06
-188,186
-176,229
-163,917
-151,631
-139,59
-127,905
-116,482
-105,278
-94,298
-83,502
-72,881
-62,498
-52,465
-42,911
-33,957
-25,674
-18,095
-11,261
-5,209
0,016
4,392
7,932
10,657
12,595
13,781
14,287
14,229
13,766
13,101
12,418
11,876
11,631
11,82
12,581
14,049
16,353
19,594
23,855
29,22
35,755
43,51
52,486
62,626
73,817
85,891
98,675
111,988
125,633
139,417
153,145
166,63
179,7
192,205
203,996
214,913
224,805
233,52
240,94
246,998
251,682
255,042
257,164
258,172
258,231
257,517
256,229
254,56
252,684
250,746
248,889
247,258
246,007
245,312
245,343
246,244
248,113
250,989
254,865
259,685
265,35
271,716
278,595
285,786
293,103
300,404
307,574
314,508
321,095
327,189
332,635
337,287
341,032
343,797
345,537
346,241
345,928
344,683
342,656
340,021
336,951
333,571
329,963
326,195
322,338
318,484
314,735
311,187
307,908
304,965
302,42
300,327
298,73
297,613
296,896
296,482
296,271
296,199
296,239
296,366
296,555
296,783
297,027
297,276
297,533
297,788
298,017
298,195
298,295
298,325
298,335
298,377
298,5
298,743
299,122
299,657
300,374
301,282
302,385
303,677
305,143
306,785
308,611
310,634
312,864
315,301
317,926
320,726
323,688
326,798
330,047
333,42
336,9
340,475
344,14
347,891
351,722
355,624
359,581
363,577
367,598
371,627
375,651
379,654
383,619
387,53
391,373
395,133
398,799
402,354
405,785
409,075
412,212
415,182
417,973
420,575
422,976
425,166
427,139
428,887
430,403
431,682
432,72
433,512
434,055
434,35
434,394
434,189
433,737
433,042
432,109
430,947
429,561
427,962
426,158
424,161
421,982
419,632
417,124
414,468
411,677
408,765
405,746
402,631
399,434
396,169
392,849
389,487
386,094
382,681
379,255
375,826
372,4
368,986
365,589
362,215
358,869
355,557
352,288
349,067
345,899
342,784
339,718
336,701
333,733
330,816
327,952
325,143
322,395
319,721
317,14
314,668
312,314
310,08
307,958
305,942
304,024
302,197
300,457
298,791
297,187
295,637
294,13
292,65
291,171
289,648
288,02
286,224
284,213
281,958
279,448
276,681
273,674
270,45
267,043
263,502
259,864
256,164
252,441
248,737
245,11
241,648
238,465
235,679
233,41
231,747
230,743
230,428
230,788
231,793
233,388
235,493
238,04
240,967
244,206
247,698
251,374
255,132
258,842
262,357
265,507
268,158
270,219
271,633
272,389
272,501
272,002
270,952
269,405
267,393
264,936
262,025
258,654
254,859
250,682
246,177
241,411
236,418
231,2
225,758
220,032
213,881
207,225
200,08
192,6
185,152
178,129
171,828
166,592
162,866
160,881
160,51
161,172
161,674
160,812
157,81
152,015
142,791
129,952
114,073
96,755
80,831
69,387
65,132
70,671
88,509
120,96
168,277
227,569
294,658
364,729
435,446
509,471
587,466
664,684
732,363
774,467
775,415
730,953
641,999
516,147
371,882
224,92
93,284
-1,359
-52,92
-63,718
-44,814
-18,412
3,314
16,671
22,804
29,38
38,559
47,996
55,412
57,548
54,048
47,03
38,251
29,703
22,975
18,523
16,47
16,596
18,245
20,764
23,612
26,21
28,062
28,98
28,928
28,012
26,481
24,536
22,353
20,13
18,028
16,167
14,645
13,52
12,83
12,621
12,89
13,606
14,712
16,108
17,702
19,404
21,1
22,673
24
24,954
25,435
25,367
24,667
23,28
21,166
18,307
14,753
10,58
5,876
0,764
-4,634
-10,191
-15,744
-21,11
-26,116
-30,577
-34,328
-37,231
-39,139
-39,927
-39,509
-37,836
-34,916
-30,796
-25,532
-19,201
-11,912
-3,795
4,98
14,205
23,676
33,177
42,477
51,353
59,586
66,964
73,328
78,567
82,594
85,362
86,841
87,008
85,888
83,539
80,038
75,501
70,063
63,871
57,117
50,01
42,735
35,467
28,341
21,447
14,879
8,708
2,984
-2,247
-6,963
-11,165
-14,842
-18,009
-20,716
-23,028
-25,057
-26,942
-28,79
-30,69
-32,713
-34,898
-37,29
-39,926
-42,815
-45,968
-49,394
-53,103
-57,128
-61,496
-66,195
-71,199
-76,453
-81,876
-87,404
-92,985
-98,566
-104,111
-109,594
-114,996
-120,324
-125,595
-130,814
-135,978
-141,059
-146,026
-150,87
-155,595
-160,216
-164,767
-169,285
-173,81
-178,397
-183,09
-187,918
-192,888
-197,979
-203,15
-208,355
-213,557
-218,731
-223,861
-228,921
-233,871
-238,666
-243,249
-247,554
-251,505
-255,001
-257,942
-260,247
-261,865
-262,776
-262,994
-262,552
-261,488
-259,842
-257,656
-254,988
-251,916
-248,53
-244,932
-241,225
-237,523
-233,972
-230,727
-227,931
-225,702
-224,123
-223,249
-223,116
-223,743
-225,133
-227,272
-230,116
-233,599
-237,629
-242,099
-246,911
-251,951
-257,081
-262,146
-266,991
-271,479
-275,502
-278,97
-281,8
-283,923
-285,292
-285,884
-285,709
-284,801
-283,216
-281,023
-278,292
-275,1
-271,545
-267,738
-263,801
-259,842
-255,949
-252,203
-248,688
-245,483
-242,651
-240,242
-238,275
-236,756
-235,683
-235,041
-234,816
-234,989
-235,527
-236,385
-237,509
-238,856
-240,39
-242,079
-243,886
-245,763
-247,671
-249,579
-251,472
-253,346
-255,202
-257,042
-258,866
-260,683
-262,506
-264,369
-266,312
-268,359
-270,532
-272,851
-275,333
-278,024
-280,964
-284,177
-287,679
-291,465
-295,519
-299,833
-304,399
-309,186
-314,15
-319,217
-324,296
-329,318
-334,221
-338,945
-343,432
-347,585
-351,308
-354,526
-357,176
-359,212
-360,6
-361,288
-361,217
-360,372
-358,765
-356,45
-353,514
-350,018
-346,015
-341,56
-336,712
-331,568
-326,24
-320,815
-315,362
-309,951
-304,654
-299,575
-294,844
-290,542
-286,711
-283,358
-280,447
-277,966
-275,91
-274,262
-272,999
-272,067
-271,406
-270,975
-270,769
-270,792
-271,037
-271,457
-271,964
-272,484
-272,987
-273,493
-274,048
-274,681
-275,429
-276,31
-277,394
-278,862
-280,765
-282,993
-285,299
-287,231
-288,359
-288,447
-287,128
-283,885
-278,665
-271,75
-263,839
-256,231
-249,922
-245,745
-244,83
-248,011
-255,32
-264,893
-273,995
-280,586
-282,05
-278,397
-268,865
-247,74
-213,629
-164,141
-96,886
-17,928
71,849
170,166
266,845
353,372
415,256
438,617
420,699
364,222
278,123
174,208
61,406
-50,467
-149,933
-227,362
-276,069
-296,939
-299,58
-293,415
-284,943
-276,484
-264,688
-248,423
-230,15
-212,697
-199,765
-193,093
-191,696
-194,154
-198,963
-204,352
-208,788
-211,431
-211,871
-210,214
-207,046
-202,896
-198,194
-193,538
-189,54
-186,52
-184,619
-183,767
-183,71
-184,274
-185,325
-186,691
-188,199
-189,687
-191,014
-192,077
-192,816
-193,184
-193,143
-192,657
-191,701
-190,267
-188,349
-185,965
-183,133
-179,854
-176,144
-172,034
-167,568
-162,826
-157,899
-152,864
-147,788
-142,72
-137,688
-132,735
-127,895
-123,188
-118,642
-114,277
-110,114
-106,201
-102,572
-99,233
-96,176
-93,355
-90,704
-88,177
-85,732
-83,332
-80,957
-78,58
-76,177
-73,743
-71,27
-68,748
-66,17
-63,5
-60,712
-57,799
-54,763
-51,633
-48,456
-45,262
-42,074
-38,918
-35,795
-32,706
-29,647
-26,59
-23,497
-20,333
-17,054
-13,641
-10,089
-6,386
-2,525
1,503
5,718
10,118
14,686
19,399
24,216
29,082
33,937
38,691
43,233
47,455
51,244
54,505
57,175
59,192
60,509
61,091
60,908
59,955
58,255
55,834
52,736
49,021
44,762
40,057
35,036
29,815
24,511
19,225
14,037
9,021
4,249
-0,228
-4,372
-8,161
-11,59
-14,661
-17,375
-19,756
-21,843
-23,69
-25,367
-26,925
-28,4
-29,821
-31,206
-32,571
-33,93
-35,279
-36,592
-37,851
-39,031
-40,111
-41,076
-41,888
-42,488
-42,824
-42,849
-42,537
-41,894
-40,926
-39,644
-38,072
-36,242
-34,209
-32,056
-29,845
-27,626
-25,453
-23,373
-21,453
-19,787
-18,445
-17,481
-16,929
-16,795
-17,082
-17,794
-18,907
-20,382
-22,158
-24,153
-26,304
-28,57
-30,901
-33,249
-35,553
-37,737
-39,743
-41,536
-43,087
-44,387
-45,43
-46,215
-46,764
-47,116
-47,316
-47,412
-47,436
-47,4
-47,318
-47,203
-47,067
-46,917
-46,75
-46,552
-46,305
-45,985
-45,561
-44,981
-44,187
-43,116
-41,703
-39,91
-37,716
-35,111
-32,106
-28,719
-24,986
-20,968
-16,741
-12,372
-7,942
-3,526
0,788
4,873
8,605
11,867
14,535
16,526
17,773
18,218
17,829
16,605
14,575
11,816
8,426
4,498
0,132
-4,561
-9,467
-14,42
-19,258
-23,822
-27,95
-31,497
-34,334
-36,324
-37,345
-37,323
-36,226
-34,074
-30,929
-26,85
-21,908
-16,19
-9,796
-2,861
4,477
12,081
19,805
27,498
34,992
42,1
48,628
54,415
59,357
63,389
66,481
68,618
69,794
70,018
69,325
67,761
65,361
62,171
58,246
53,66
48,542
43,041
37,325
31,546
25,798
20,153
14,678
9,436
4,501
-0,062
-4,24
-8,003
-11,313
-14,143
-16,417
-18,148
-19,48
-20,441
-20,98
-20,886
-19,644
-16,79
-12,076
-5,115
4,438
16,46
30,643
46,023
60,773
73,348
82,48
86,882
86
80,33
70,803
59,696
50,886
47,968
54,642
74,949
110,226
158,684
218,309
285,091
356,21
435,049
521,907
612,385
698,368
759,781
776,441
738,178
640,734
496,335
330,342
167,305
34,621
-49,181
-84,031
-78,621
-52,266
-25,815
-7,545
1,339
5,963
13,934
25,881
39,12
50,648
57,439
59,686
59,587
58,878
58,942
60,747
64,6
70,453
77,799
85,855
93,572
99,992
104,994
108,507
110,362
110,683
109,675
107,589
105,056
102,714
100,475
98,248
96,099
93,955
91,95
90,257
88,747
87,286
86,04
85,133
84,663
84,778
85,422
86,494
87,984
89,834
91,964
94,321
96,819
99,366
101,922
104,448
106,92
109,34
111,695
113,965
116,142
118,209
120,166
122,033
123,823
125,558
127,256
128,925
130,584
132,251
133,938
135,657
137,407
139,18
140,976
142,797
144,644
146,518
148,418
150,337
152,27
154,213
156,16
158,108
160,048
161,972
163,873
165,745
167,583
169,382
171,136
172,838
174,481
176,06
177,566
178,993
180,334
181,582
182,729
183,77
184,697
185,506
186,19
186,745
187,164
187,444
187,581
187,571
187,412
187,1
186,634
186,014
185,24
184,311
183,228
181,993
180,609
179,077
177,401
175,584
173,632
171,548
169,338
167,007
164,561
162,006
159,348
156,592
153,746
150,816
147,808
144,728
141,583
138,379
135,123
131,822
128,481
125,108
121,708
118,287
114,852
111,407
107,959
104,513
101,076
97,651
94,245
90,864
87,512
84,195
80,919
77,686
74,504
71,375
68,305
65,297
62,356
59,485
56,688
53,97
51,333
48,781
46,318
43,946
41,668
39,488
37,406
35,427
33,551
31,782
30,12
28,567
27,124
25,792
24,571
23,461
22,461
21,57
20,785
20,104
19,523
19,039
18,648
18,345
18,127
17,987
17,921
17,923
17,988
18,111
18,284
18,503
18,761
19,054
19,374
19,715
20,073
20,439
20,809
21,176
21,534
21,877
22,198
22,492
22,754
22,979
23,162
23,3
23,391
23,431
23,421
23,361
23,25
23,091
22,884
22,632
22,338
22,003
21,631
21,226
20,79
20,331
19,852
19,361
18,863
18,365
17,873
17,396
16,943
16,519
16,132
15,791
15,507
15,295
15,165
15,126
15,179
15,329
15,573
15,909
16,326
16,808
17,336
17,895
18,475
19,071
19,676
20,279
20,866
21,417
21,928
22,404
22,853
23,286
23,724
24,197
24,756
25,472
26,402
27,591
29,065
30,835
32,913
35,315
38,046
41,108
44,482
48,13
52,021
56,119
60,362
64,673
68,934
72,995
76,739
80,073
82,929
85,265
87,033
88,191
88,721
88,617
87,886
86,551
84,604
82,025
78,827
75,046
70,767
66,137
61,256
56,18
50,936
45,54
40,008
34,38
28,646
22,699
16,501
10,161
3,959
-1,643
-6,185
-9,338
-10,791
-10,137
-7,188
-2,181
4,21
10,839
16,482
19,986
20,336
16,71
8,617
-2,169
-12,999
-22,352
-27,333
-27,592
-22,961
-6,856
25,035
75,862
147,131
229,801
314,492
395,66
469,934
538,29
600,473
650,663
674,984
660,143
597,579
483,15
331,029
164,51
9,021
-104,889
-164,501
-174,372
-148,814
-113,718
-85,49
-68,192
-59,632
-50,929
-38,683
-25,064
-12,823
-5,94
-5,106
-8,174
-13,376
-18,58
-22,095
-23,531
-22,759
-19,953
-15,806
-10,972
-5,978
-1,449
2,045
4,238
5,025
4,473
2,854
0,417
-2,633
-6,077
-9,721
-13,405
-16,983
-20,336
-23,387
-26,076
-28,359
-30,206
-31,586
-32,478
-32,87
-32,785
-32,276
-31,41
-30,253
-28,861
-27,284
-25,588
-23,842
-22,107
-20,434
-18,848
-17,363
-15,992
-14,742
-13,612
-12,597
-11,681
-10,844
-10,072
-9,354
-8,68
-8,043
-7,433
-6,847
-6,29
-5,768
-5,289
-4,862
-4,497
-4,221
-4,08
-4,114
-4,347
-4,788
-5,433
-6,28
-7,33
-8,568
-9,956
-11,438
-12,947
-14,435
-15,863
-17,19
-18,365
-19,314
-19,943
-20,179
-19,978
-19,308
-18,147
-16,464
-14,223
-11,431
-8,137
-4,423
-0,373
3,941
8,458
13,105
17,782
22,381
26,788
30,914
34,702
38,087
41,003
43,372
45,112
46,185
46,601
46,392
45,594
44,241
42,364
40,018
37,289
34,254
30,978
27,506
23,861
20,082
16,219
12,329
8,473
4,686
0,979
-2,645
-6,18
-9,628
-12,994
-16,303
-19,6
-22,916
-26,262
-29,638
-33,032
-36,438
-39,861
-43,303
-46,765
-50,24
-53,721
-57,2
-60,673
-64,129
-67,551
-70,915
-74,185
-77,337
-80,357
-83,23
-85,953
-88,517
-90,917
-93,153
-95,229
-97,148
-98,914
-100,527
-101,991
-103,312
-104,497
-105,554
-106,495
-107,33
-108,073
-108,741
-109,346
-109,899
-110,407
-110,875
-111,306
-111,701
-112,058
-112,364
-112,61
-112,786
-112,891
-112,938
-112,936
-112,892
-112,817
-112,715
-112,601
-112,503
-112,442
-112,436
-112,505
-112,667
-112,959
-113,435
-114,141
-115,114
-116,373
-117,908
-119,712
-121,772
-124,063
-126,55
-129,178
-131,87
-134,564
-137,213
-139,767
-142,179
-144,38
-146,274
-147,786
-148,855
-149,441
-149,536
-149,13
-148,22
-146,826
-144,993
-142,784
-140,288
-137,574
-134,683
-131,664
-128,557
-125,42
-122,334
-119,359
-116,534
-113,888
-111,434
-109,183
-107,156
-105,346
-103,728
-102,269
-100,922
-99,663
-98,495
-97,419
-96,434
-95,531
-94,686
-93,89
-93,152
-92,481
-91,889
-91,374
-90,921
-90,522
-90,178
-89,88
-89,614
-89,342
-89,005
-88,558
-87,968
-87,218
-86,304
-85,213
-83,921
-82,406
-80,651
-78,662
-76,459
-74,067
-71,52
-68,872
-66,192
-63,586
-61,155
-58,979
-57,12
-55,605
-54,455
-53,697
-53,364
-53,513
-54,206
-55,485
-57,372
-59,865
-62,942
-66,595
-70,801
-75,49
-80,615
-86,117
-91,979
-98,322
-105,176
-112,406
-119,751
-126,747
-132,885
-137,823
-141,168
-142,349
-141,176
-137,919
-133,254
-128,452
-124,752
-123,19
-124,798
-130,428
-140,364
-152,62
-164,449
-174,087
-178,376
-176,829
-169,122
-148,401
-111,707
-57,841
15,371
99,521
188,589
282,443
375,131
462,368
537,288
584,512
592,177
556,788
478,858
365,978
234,649
99,614
-21,907
-109,893
-158,286
-169,488
-154,18
-132,352
-114,931
-104,787
-100,264
-94,676
-86,473
-78,13
-71,981
-70,802
-74,649
-81,439
-89,481
-96,94
-102,305
-105,099
-105,164
-102,663
-98,218
-92,468
-85,986
-79,443
-73,443
-68,293
-64,127
-60,928
-58,536
-56,833
-55,725
-55,073
-54,748
-54,644
-54,671
-54,772
-54,893
-54,954
-54,86
-54,52
-53,867
-52,873
-51,527
-49,831
-47,797
-45,439
-42,786
-39,877
-36,75
-33,443
-29,995
-26,44
-22,822
-19,188
-15,585
-12,058
-8,638
-5,344
-2,183
0,842
3,736
6,506
9,164
11,726
14,206
16,615
18,962
21,254
23,501
25,715
27,912
30,107
32,306
34,515
36,738
38,975
41,226
43,486
45,74
47,974
50,176
52,335
54,452
56,528
58,562
60,553
62,499
64,404
66,287
68,168
70,061
71,982
73,944
75,962
78,075
80,316
82,706
85,263
87,987
90,871
93,917
97,119
100,454
103,882
107,336
110,729
113,992
117,057
119,851
122,307
124,332
125,839
126,77
127,072
126,708
125,647
123,846
121,266
117,917
113,83
109,073
103,751
97,951
91,764
85,3
78,655
71,939
65,255
58,673
52,253
46,061
40,156
34,615
29,519
24,903
20,773
17,118
13,882
11,02
8,478
6,176
4,047
2,032
0,08
-1,833
-3,719
-5,604
-7,515
-9,484
-11,56
-13,762
-16,095
-18,561
-21,133
-23,784
-26,477
-29,157
-31,775
-34,298
-36,702
-38,978
-41,127
-43,142
-45,018
-46,749
-48,323
-49,731
-50,971
-52,037
-52,934
-53,673
-54,268
-54,747
-55,133
-55,44
-55,683
-55,866
-55,993
-56,069
-56,095
-56,072
-56,002
-55,891
-55,744
-55,57
-55,376
-55,164
-54,937
-54,696
-54,441
-54,172
-53,891
-53,6
-53,303
-53,002
-52,701
-52,407
-52,123
-51,853
-51,6
-51,364
-51,148
-50,952
-50,779
-50,629
-50,503
-50,403
-50,331
-50,287
-50,272
-50,287
-50,33
-50,4
-50,495
-50,611
-50,746
-50,896
-51,059
-51,23
-51,408
-51,589
-51,772
-51,954
-52,134
-52,309
-52,474
-52,625
-52,758
-52,869
-52,955
-53,011
-53,036
-53,026
-52,984
-52,91
-52,808
-52,677
-52,516
-52,32
-52,089
-51,823
-51,527
-51,203
-50,859
-50,505
-50,158
-49,844
-49,581
-49,382
-49,253
-49,192
-49,194
-49,255
-49,37
-49,537
-49,752
-50,008
-50,299
-50,622
-50,969
-51,317
-51,63
-51,844
-51,898
-51,749
-51,365
-50,732
-49,849
-48,717
-47,349
-45,766
-43,985
-42,024
-39,905
-37,637
-35,238
-32,745
-30,224
-27,797
-25,614
-23,806
-22,487
-21,735
-21,591
-22,1
-23,294
-25,159
-27,682
-30,852
-34,633
-39,072
-44,254
-50,123
-56,541
-63,237
-69,714
-75,474
-80,049
-82,827
-83,29
-81,362
-77,048
-70,669
-63,256
-55,967
-50,17
-47,472
-47,577
-48,261
-48,094
-46,163
-44,624
-47,915
-55,077
-59,945
-51,802
-18,475
44,4
132,646
237,456
347,876
452,764
542,542
606,249
631,713
613,688
552,255
452,516
327,398
190,007
55,398
-57,094
-133,961
-169,872
-169,613
-150,223
-128,936
-115,329
-111,628
-112,387
-111,588
-108,261
-103,947
-101,532
-103,532
-109,365
-117,21
-125,334
-131,698
-135,387
-136,39
-134,717
-130,83
-125,356
-118,801
-111,822
-105,135
-99,117
-93,919
-89,575
-85,938
-82,895
-80,4
-78,352
-76,642
-75,18
-73,894
-72,749
-71,738
-70,848
-70,034
-69,231
-68,387
-67,467
-66,459
-65,362
-64,17
-62,857
-61,397
-59,754
-57,906
-55,856
-53,601
-51,142
-48,47
-45,567
-42,431
-39,082
-35,532
-31,795
-27,877
-23,774
-19,5
-15,083
-10,561
-5,977
-1,363
3,263
7,883
12,479
17,031
21,514
25,914
30,233
34,466
38,612
42,668
46,625
50,487
54,269
57,985
61,653
65,286
68,885
72,457
76,003
79,526
83,027
86,502
89,941
93,338
96,687
99,983
103,222
106,396
109,493
112,504
115,416
118,221
120,91
123,474
125,904
128,193
130,333
132,321
134,15
135,815
137,309
138,627
139,762
140,709
141,463
142,02
142,374
142,525
142,47
142,207
141,739
141,066
140,19
139,113
137,839
136,372
134,719
132,884
130,875
128,7
126,367
123,885
121,264
118,514
115,645
112,668
109,594
106,434
103,2
99,903
96,555
93,167
89,753
86,324
82,892
79,467
76,062
72,686
69,351
66,065
62,837
59,676
56,589
53,584
50,666
47,841
45,115
42,49
39,972
37,562
35,263
33,076
31,003
29,045
27,2
25,469
23,85
22,343
20,945
19,655
18,47
17,386
16,402
15,512
14,714
14,004
13,378
12,831
12,361
11,964
11,635
11,372
11,172
11,031
10,946
10,916
10,936
11,006
11,123
11,285
11,49
11,736
12,022
12,346
12,705
13,098
13,523
13,978
14,46
14,969
15,501
16,056
16,63
17,222
17,831
18,453
19,088
19,732
20,383
21,039
21,696
22,352
23,004
23,648
24,282
24,901
25,503
26,084
26,641
27,168
27,664
28,124
28,547
28,93
29,272
29,57
29,825
30,038
30,208
30,336
30,424
30,472
30,482
30,455
30,393
30,296
30,167
30,01
29,827
29,626
29,411
29,189
28,965
28,747
28,544
28,362
28,204
28,077
27,986
27,938
27,944
28,01
28,14
28,334
28,59
28,906
29,276
29,69
30,127
30,57
31
31,409
31,799
32,168
32,513
32,834
33,124
33,389
33,644
33,899
34,163
34,444
34,754
35,12
35,591
36,202
36,981
37,933
39,042
40,294
41,675
43,156
44,707
46,28
47,818
49,287
50,663
51,919
53,029
53,939
54,576
54,889
54,842
54,431
53,675
52,586
51,186
49,52
47,638
45,596
43,438
41,16
38,743
36,185
33,499
30,714
27,845
24,882
21,796
18,529
15,05
11,295
7,098
2,418
-2,667
-7,975
-13,066
-17,497
-21,025
-23,255
-23,664
-22,254
-19,321
-15,516
-12,244
-10,581
-11,046
-14,539
-21,85
-32,637
-45,907
-59,795
-71,07
-76,913
-75,102
-62,649
-36,549
3,676
56,01
117,598
183,819
252,537
326,61
405,66
484,503
555,084
602,037
610,167
574,894
495,703
378,682
241,862
101,324
-24,995
-116,356
-167,456
-181,194
-167,843
-147,156
-129,539
-117,753
-110,531
-101,252
-88,571
-75,142
-63,386
-56,442
-54,699
-56,248
-59,577
-62,906
-64,663
-64,375
-61,931
-57,534
-51,849
-45,514
-39,027
-32,988
-28,009
-24,416
-22,376
-21,882
-22,725
-24,721
-27,717
-31,524
-35,943
-40,782
-45,839
-50,923
-55,897
-60,651
-65,1
-69,18
-72,828
-75,987
-78,608
-80,673
-82,188
-83,168
-83,637
-83,618
-83,149
-82,292
-81,136
-79,78
-78,309
-76,776
-75,214
-73,65
-72,111
-70,621
-69,201
-67,852
-66,567
-65,345
-64,182
-63,081
-62,034
-61,024
-60,02
-58,99
-57,908
-56,764
-55,551
-54,267
-52,907
-51,466
-49,94
-48,337
-46,664
-44,931
-43,142
-41,304
-39,43
-37,541
-35,672
-33,853
-32,104
-30,438
-28,857
-27,363
-25,962
-24,655
-23,445
-22,319
-21,265
-20,277
-19,353
-18,489
-17,673
-16,871
-16,03
-15,112
-14,096
-12,98
-11,778
-10,501
-9,166
-7,81
-6,48
-5,24
-4,15
-3,245
-2,553
-2,101
-1,926
-2,095
-2,696
-3,786
-5,402
-7,565
-10,274
-13,532
-17,328
-21,605
-26,283
-31,266
-36,468
-41,836
-47,332
-52,91
-58,517
-64,079
-69,509
-74,748
-79,755
-84,481
-88,897
-92,964
-96,658
-100,01
-103,072
-105,898
-108,538
-111,007
-113,313
-115,471
-117,501
-119,423
-121,26
-123,018
-124,697
-126,317
-127,891
-129,437
-130,967
-132,459
-133,878
-135,195
-136,387
-137,444
-138,367
-139,144
-139,769
-140,245
-140,577
-140,777
-140,859
-140,82
-140,66
-140,379
-139,975
-139,465
-138,863
-138,182
-137,432
-136,623
-135,762
-134,859
-133,925
-132,961
-131,969
-130,95
-129,903
-128,834
-127,751
-126,658
-125,56
-124,46
-123,364
-122,275
-121,199
-120,137
-119,092
-118,064
-117,055
-116,067
-115,101
-114,159
-113,24
-112,345
-111,474
-110,625
-109,8
-108,995
-108,21
-107,443
-106,693
-105,957
-105,236
-104,526
-103,827
-103,137
-102,456
-101,781
-101,112
-100,445
-99,78
-99,113
-98,443
-97,765
-97,077
-96,376
-95,66
-94,925
-94,171
-93,395
-92,596
-91,773
-90,925
-90,051
-89,153
-88,229
-87,282
-86,312
-85,32
-84,309
-83,279
-82,234
-81,176
-80,109
-79,036
-77,961
-76,89
-75,826
-74,774
-73,739
-72,725
-71,735
-70,771
-69,836
-68,932
-68,064
-67,237
-66,453
-65,717
-65,033
-64,401
-63,826
-63,306
-62,838
-62,415
-62,036
-61,701
-61,416
-61,189
-61,026
-60,932
-60,909
-60,957
-61,069
-61,236
-61,435
-61,644
-61,843
-62,012
-62,145
-62,23
-62,249
-62,182
-61,995
-61,653
-61,129
-60,393
-59,423
-58,222
-56,808
-55,215
-53,5
-51,709
-49,888
-48,109
-46,425
-44,907
-43,645
-42,691
-42,152
-42,21
-42,926
-44,276
-46,114
-48,048
-49,677
-50,735
-50,791
-49,375
-46,429
-42,127
-37,135
-32,821
-30,347
-30,545
-34,363
-42,366
-54,163
-68,786
-84,163
-96,92
-103,895
-102,132
-88,485
-60,566
-18,652
34,998
97,409
163,442
231,578
303,928
376,786
445,785
502,322
529,298
519,257
469,883
381,799
270,539
150,755
37,862
-47,405
-97,39
-111,899
-98,777
-76,816
-57,42
-45,345
-39,951
-33,79
-24,692
-14,441
-5,072
-0,255
-0,669
-4,398
-10,147
-16,305
-21,276
-24,6
-26,04
-25,5
-23,536
-20,742
-17,518
-14,38
-11,828
-10,072
-9,212
-9,233
-9,921
-11,107
-12,657
-14,394
-16,162
-17,808
-19,196
-20,222
-20,81
-20,908
-20,48
-19,5
-17,973
-15,929
-13,42
-10,53
-7,342
-3,919
-0,334
3,342
7,025
10,601
13,966
17,035
19,735
22,033
23,905
25,335
26,336
26,948
27,23
27,269
27,139
26,89
26,571
26,232
25,931
25,751
25,759
26,002
26,52
27,331
28,453
29,902
31,673
33,741
36,069
38,602
41,298
44,136
47,09
50,138
53,253
56,387
59,506
62,589
65,614
68,573
71,457
74,253
76,959
79,581
82,138
84,667
87,2
89,752
92,342
94,981
97,687
100,503
103,46
106,573
109,858
113,308
116,915
120,686
124,611
128,667
132,813
136,97
141,05
144,988
148,714
152,165
155,263
157,893
159,961
161,397
162,139
162,152
161,397
159,815
157,368
154,052
149,898
144,983
139,405
133,239
126,573
119,502
112,139
104,644
97,148
89,749
82,535
75,58
68,968
62,814
57,208
52,198
47,804
44,005
40,763
38,059
35,854
34,088
32,683
31,53
30,544
29,678
28,894
28,157
27,418
26,602
25,648
24,536
23,252
21,8
20,194
18,43
16,525
14,524
12,483
10,47
8,536
6,696
4,961
3,344
1,86
0,542
-0,588
-1,531
-2,29
-2,859
-3,241
-3,422
-3,401
-3,214
-2,9
-2,496
-2,037
-1,529
-0,979
-0,4
0,2
0,806
1,406
2,005
2,605
3,19
3,749
4,262
4,709
5,112
5,489
5,853
6,219
6,589
6,963
7,351
7,763
8,199
8,665
9,156
9,669
10,217
10,809
11,461
12,187
12,977
13,82
14,713
15,648
16,625
17,644
18,695
19,772
20,876
22,006
23,165
24,357
25,574
26,81
28,061
29,319
30,588
31,871
33,168
34,48
35,807
37,147
38,501
39,873
41,257
42,649
44,047
45,444
46,84
48,235
49,626
51,011
52,387
53,748
55,092
56,414
57,71
58,976
60,207
61,398
62,548
63,655
64,719
65,74
66,714
67,638
68,508
69,325
70,085
70,787
71,429
72,011
72,533
73,003
73,422
73,79
74,106
74,357
74,536
74,638
74,658
74,597
74,456
74,236
73,948
73,612
73,243
72,86
72,478
72,098
71,74
71,426
71,183
71,052
71,065
71,245
71,616
72,185
72,943
73,881
74,969
76,167
77,438
78,718
79,94
81,043
81,931
82,533
82,749
82,394
81,41
79,848
77,838
75,733
73,89
72,509
71,93
72,576
74,428
77,25
80,474
82,86
83,425
81,593
76,583
67,945
56,213
42,403
28,387
17,272
11,781
14,208
27,167
52,395
90,085
139,505
198,471
262,927
328,645
391,231
445,427
486,68
511,964
519,161
507,664
479,045
435,806
381,338
320,577
258,53
199,408
147,229
105,06
74,178
54,895
46,552
47,007
53,73
64,311
75,951
86,372
94,396
99,348
101,171
100,566
98,322
95,319
92,779
91,517
91,787
93,638
96,768
100,702
105,081
109,459
113,287
116,242
118,19
119,095
119,09
118,313
116,848
114,837
112,435
109,776
106,994
104,201
101,484
98,919
96,573
94,495
92,725
91,28
90,16
89,359
88,854
88,622
88,646
88,897
89,349
89,972
90,724
91,566
92,457
93,363
94,265
95,148
96,002
96,829
97,634
98,426
99,219
100,027
100,855
101,711
102,603
103,534
104,514
105,548
106,648
107,824
109,087
110,442
111,888
113,418
115,024
116,701
118,44
120,23
122,057
123,912
125,795
127,713
129,674
131,68
133,723
135,786
137,853
139,915
141,971
144,024
146,069
148,099
150,113
152,12
154,135
156,157
158,162
160,104
161,94
163,637
165,179
166,554
167,75
168,745
169,511
170,027
170,278
170,251
169,921
169,248
168,187
166,72
164,858
162,644
160,118
157,303
154,217
150,871
147,288
143,496
139,521
135,379
131,083
126,655
122,125
117,543
112,961
108,413
103,905
99,426
94,967
90,533
86,132
81,774
77,461
73,195
68,986
64,853
60,819
56,896
53,086
49,381
45,772
42,258
38,851
35,566
32,416
29,409
26,547
23,839
21,293
18,915
16,698
14,628
12,688
10,867
9,163
7,582
6,122
4,778
3,546
2,421
1,405
0,493
-0,328
-1,081
-1,792
-2,479
-3,148
-3,796
-4,422
-5,032
-5,645
-6,279
-6,946
-7,657
-8,426
-9,279
-10,249
-11,35
-12,572
-13,881
-15,246
-16,646
-18,073
-19,529
-21,007
-22,493
-23,965
-25,407
-26,808
-28,156
-29,428
-30,585
-31,58
-32,392
-33,032
-33,538
-33,947
-34,278
-34,541
-34,741
-34,891
-35,01
-35,114
-35,208
-35,292
-35,373
-35,47
-35,621
-35,862
-36,214
-36,668
-37,199
-37,784
-38,413
-39,08
-39,78
-40,501
-41,232
-41,969
-42,721
-43,496
-44,296
-45,114
-45,933
-46,737
-47,518
-48,278
-49,027
-49,77
-50,51
-51,246
-51,98
-52,716
-53,456
-54,195
-54,922
-55,626
-56,3
-56,941
-57,548
-58,119
-58,652
-59,142
-59,586
-59,981
-60,327
-60,622
-60,864
-61,051
-61,184
-61,266
-61,302
-61,296
-61,252
-61,175
-61,07
-60,944
-60,801
-60,65
-60,495
-60,346
-60,211
-60,102
-60,028
-60
-60,023
-60,103
-60,248
-60,464
-60,764
-61,156
-61,647
-62,243
-62,953
-63,784
-64,743
-65,826
-67,013
-68,286
-69,629
-71,029
-72,482
-73,981
-75,515
-77,069
-78,622
-80,16
-81,675
-83,159
-84,589
-85,947
-87,221
-88,43
-89,644
-90,928
-92,337
-93,904
-95,622
-97,505
-99,592
-101,924
-104,57
-107,585
-110,967
-114,776
-119,128
-124,031
-129,411
-134,98
-140,149
-144,377
-147,248
-148,327
-147,417
-144,655
-140,342
-135,378
-131,196
-129,07
-130,267
-135,77
-145,446
-158,42
-173,424
-187,861
-198,498
-202,18
-194,848
-174,324
-141,872
-99,056
-48,179
10,907
82,457
165,861
254,839
334,935
385,205
394,703
360,913
292,073
206,435
113,021
20,473
-62,766
-135,538
-189,469
-221,153
-236,965
-240,206
-237,795
-234,553
-227,73
-217,317
-204,908
-192,074
-182,504
-178,14
-178,58
-182,909
-189,76
-197,6
-204,904
-210,725
-214,589
-216,349
-216,441
-215,365
-213,483
-211,355
-209,608
-208,577
-208,435
-209,2
-210,665
-212,679
-215,153
-217,938
-220,894
-223,92
-226,914
-229,812
-232,573
-235,127
-237,413
-239,388
-241,018
-242,293
-243,218
-243,799
-244,059
-244,027
-243,732
-243,204
-242,468
-241,548
-240,476
-239,288
-238,021
-236,717
-235,404
-234,103
-232,834
-231,606
-230,423
-229,287
-228,19
-227,124
-226,082
-225,061
-224,055
-223,062
-222,077
-221,093
-220,103
-219,098
-218,074
-217,023
-215,942
-214,827
-213,675
-212,488
-211,266
-210,012
-208,729
-207,417
-206,08
-204,717
-203,33
-201,92
-200,49
-199,041
-197,575
-196,097
-194,612
-193,126
-191,649
-190,188
-188,753
-187,35
-185,989
-184,677
-183,423
-182,236
-181,123
-180,092
-179,154
-178,323
-177,614
-177,041
-176,613
-176,335
-176,208
-176,228
-176,393
-176,699
-177,137
-177,701
-178,393
-179,217
-180,189
-181,326
-182,633
-184,111
-185,751
-187,542
-189,489
-191,593
-193,86
-196,305
-198,938
-201,775
-204,846
-208,165
-211,727
-215,514
-219,48
-223,569
-227,742
-231,969
-236,223
-240,488
-244,729
-248,916
-253,021
-257,007
-260,834
-264,457
-267,809
-270,838
-273,525
-275,866
-277,893
-279,653
-281,176
-282,485
-283,602
-284,541
-285,321
-285,962
-286,47
-286,859
-287,147
-287,362
-287,552
-287,756
-287,985
-288,238
-288,493
-288,711
-288,87
-288,952
-288,935
-288,81
-288,567
-288,198
-287,71
-287,109
-286,392
-285,551
-284,567
-283,421
-282,112
-280,643
-279,025
-277,278
-275,414
-273,446
-271,391
-269,256
-267,043
-264,749
-262,363
-259,881
-257,305
-254,644
-251,915
-249,136
-246,319
-243,485
-240,645
-237,806
-234,968
-232,115
-229,23
-226,307
-223,345
-220,358
-217,363
-214,361
-211,349
-208,32
-205,252
-202,125
-198,91
-195,557
-192,025
-188,302
-184,395
-180,343
-176,207
-172,028
-167,84
-163,674
-159,542
-155,474
-151,505
-147,656
-143,967
-140,487
-137,277
-134,437
-132,057
-130,179
-128,813
-127,926
-127,445
-127,311
-127,465
-127,833
-128,366
-129,014
-129,723
-130,471
-131,224
-131,928
-132,514
-132,881
-132,92
-132,573
-131,812
-130,641
-129,112
-127,271
-125,177
-122,915
-120,553
-118,141
-115,724
-113,319
-110,939
-108,618
-106,397
-104,334
-102,499
-100,937
-99,672
-98,719
-98,06
-97,669
-97,511
-97,524
-97,655
-97,871
-98,145
-98,467
-98,84
-99,252
-99,693
-100,152
-100,605
-101,032
-101,42
-101,753
-102,024
-102,235
-102,393
-102,515
-102,622
-102,721
-102,816
-102,907
-102,981
-103,03
-103,05
-103,032
-102,976
-102,884
-102,761
-102,617
-102,471
-102,334
-102,218
-102,13
-102,065
-102,017
-101,985
-101,967
-101,963
-101,973
-101,978
-101,959
-101,901
-101,779
-101,575
-101,263
-100,796
-100,131
-99,239
-98,091
-96,685
-95,03
-93,126
-90,974
-88,583
-85,968
-83,167
-80,238
-77,219
-74,148
-71,068
-68,013
-65,054
-62,257
-59,669
-57,328
-55,256
-53,454
-51,938
-50,741
-49,882
-49,391
-49,275
-49,508
-50,078
-50,96
-52,133
-53,595
-55,316
-57,28
-59,482
-61,882
-64,499
-67,398
-70,512
-73,679
-76,59
-78,705
-79,565
-78,831
-76,069
-71,029
-63,827
-54,74
-44,639
-34,873
-26,534
-20,743
-18,512
-19,908
-24,212
-30,263
-35,768
-37,8
-33,662
-20,02
6,378
45,765
95,855
154,184
216,724
282,776
355,709
432,694
507,266
568,289
598,386
589,024
540,194
456,805
352,13
239,017
129,355
37,698
-25,867
-57,38
-60,535
-47,978
-31,74
-19,011
-11,185
-3,689
6,048
17,434
28,687
36,542
39,99
40,489
39,574
39,053
40,524
44,477
51,029
60,12
71,135
83,354
96,141
108,768
120,544
131,048
140,016
147,311
153,002
157,175
159,904
161,32
161,557
160,736
158,99
156,467
153,314
149,69
145,776
141,737
137,739
133,954
130,536
127,598
125,225
123,464
122,342
121,875
122,067
122,895
124,318
126,274
128,696
131,521
134,679
138,096
141,692
145,379
149,081
152,749
156,347
159,855
163,259
166,547
169,715
172,771
175,73
178,606
181,412
184,157
186,85
189,51
192,155
194,81
197,49
200,201
202,945
205,722
208,527
211,356
214,201
217,048
219,885
222,703
225,494
228,252
230,972
233,643
236,258
238,806
241,281
243,676
245,985
248,202
250,322
252,342
254,258
256,069
257,775
259,372
260,859
262,235
263,498
264,648
265,685
266,608
267,419
268,119
268,712
269,201
269,59
269,883
270,084
270,198
270,232
270,189
270,075
269,897
269,66
269,372
269,039
268,668
268,267
267,845
267,409
266,965
266,523
266,089
265,671
265,273
264,902
264,562
264,257
263,993
263,772
263,6
263,478
263,41
263,4
263,45
263,563
263,739
263,977
264,276
264,631
265,042
265,503
266,009
266,557
267,141
267,757
268,404
269,079
269,775
270,485
271,197
271,904
272,602
273,288
273,957
274,611
275,253
275,893
276,551
277,236
277,953
278,7
279,466
280,242
281,022
281,796
282,556
283,291
283,987
284,636
285,233
285,762
286,203
286,518
286,654
286,579
286,278
285,75
285,008
284,072
282,964
281,723
280,399
279,034
277,67
276,338
275,054
273,852
272,775
271,882
271,249
270,93
270,949
271,325
272,058
273,132
274,523
276,182
278,035
280,025
282,103
284,234
286,397
288,562
290,683
292,712
294,591
296,272
297,728
298,936
299,878
300,557
300,98
301,179
301,208
301,104
300,894
300,594
300,211
299,753
299,24
298,685
298,102
297,506
296,905
296,309
295,727
295,163
294,611
294,058
293,481
292,863
292,196
291,477
290,706
289,883
289,009
288,088
287,126
286,13
285,102
284,046
282,96
281,847
280,712
279,561
278,399
277,233
276,067
274,903
273,745
272,592
271,445
270,304
269,164
268,023
266,882
265,738
264,591
263,443
262,291
261,137
259,981
258,823
257,664
256,504
255,341
254,176
253,008
251,838
250,666
249,491
248,312
247,13
245,945
244,757
243,566
242,37
241,171
239,968
238,761
237,551
236,339
235,127
233,918
232,714
231,518
230,334
229,164
228,012
226,879
225,768
224,68
223,614
222,572
221,555
220,565
219,601
218,667
217,761
216,885
216,04
215,228
214,449
213,702
212,986
212,301
211,651
211,04
210,47
209,939
209,44
208,966
208,51
208,059
207,6
207,108
206,562
205,946
205,247
204,459
203,572
202,572
201,445
200,174
198,761
197,219
195,562
193,813
191,998
190,149
188,316
186,562
184,935
183,47
182,189
181,107
180,249
179,65
179,341
179,341
179,645
180,23
181,069
182,126
183,35
184,681
186,027
187,285
188,38
189,258
189,873
190,168
190,061
189,442
188,221
186,342
183,761
180,437
176,309
171,342
165,538
158,934
151,57
143,401
134,391
124,636
114,389
104,057
94,067
84,781
76,615
70,172
65,9
63,772
63,23
63,223
62,799
61,077
56,937
49,348
37,551
22,905
9,212
-1,169
-6,789
-7,965
-8,048
-2,998
15,318
51,962
114,436
199,902
297,289
402,175
506,048
600,641
681,681
735,878
750,768
723,079
651,735
543,666
414,317
275,714
142,952
33,662
-45,179
-90,792
-108,495
-114,12
-116,465
-119,189
-122,56
-120,403
-111,766
-100,472
-89,675
-83,333
-82,949
-87,147
-94,57
-103,886
-113,348
-121,37
-127,068
-130,022
-130,38
-128,81
-125,917
-122,195
-118,336
-115,066
-112,798
-111,756
-111,935
-113,119
-115,154
-117,928
-121,297
-125,129
-129,341
-133,861
-138,62
-143,563
-148,606
-153,651
-158,62
-163,442
-168,046
-172,368
-176,368
-180,033
-183,371
-186,405
-189,139
-191,566
-193,67
-195,453
-196,937
-198,153
-199,138
-199,922
-200,539
-201,03
-201,445
-201,839
-202,247
-202,682
-203,146
-203,636
-204,156
-204,716
-205,325
-205,982
-206,686
-207,429
-208,209
-209,021
-209,851
-210,683
-211,493
-212,258
-212,964
-213,605
-214,181
-214,701
-215,177
-215,62
-216,043
-216,456
-216,858
-217,247
-217,624
-217,983
-218,33
-218,662
-218,964
-219,231
-219,456
-219,629
-219,742
-219,777
-219,693
-219,468
-219,08
-218,519
-217,8
-216,935
-215,935
-214,821
-213,613
-212,344
-211,075
-209,856
-208,725
-207,728
-206,902
-206,299
-205,995
-206,051
-206,511
-207,411
-208,764
-210,58
-212,886
-215,691
-218,996
-222,792
-227,029
-231,658
-236,65
-241,96
-247,552
-253,375
-259,353
-265,415
-271,509
-277,585
-283,596
-289,492
-295,194
-300,618
-305,7
-310,381
-314,636
-318,449
-321,787
-324,618
-326,913
-328,649
-329,815
-330,407
-330,405
-329,784
-328,536
-326,677
-324,256
-321,346
-318,009
-314,297
-310,249
-305,905
-301,319
-296,565
-291,725
-286,88
-282,12
-277,548
-273,271
-269,416
-266,086
-263,35
-261,247
-259,79
-258,988
-258,871
-259,466
-260,781
-262,808
-265,509
-268,816
-272,658
-276,939
-281,526
-286,283
-291,053
-295,682
-300,057
-304,091
-307,707
-310,842
-313,418
-315,346
-316,571
-317,054
-316,777
-315,759
-314,026
-311,621
-308,634
-305,163
-301,318
-297,223
-292,966
-288,613
-284,227
-279,859
-275,568
-271,427
-267,486
-263,782
-260,345
-257,184
-254,307
-251,714
-249,376
-247,254
-245,301
-243,463
-241,703
-240,008
-238,36
-236,751
-235,175
-233,614
-232,062
-230,522
-228,993
-227,477
-225,977
-224,493
-223,036
-221,626
-220,282
-219,028
-217,877
-216,835
-215,905
-215,085
-214,374
-213,768
-213,26
-212,838
-212,494
-212,22
-212,01
-211,859
-211,759
-211,7
-211,669
-211,656
-211,649
-211,641
-211,623
-211,586
-211,524
-211,431
-211,305
-211,141
-210,939
-210,695
-210,407
-210,073
-209,69
-209,26
-208,781
-208,253
-207,678
-207,057
-206,394
-205,692
-204,956
-204,188
-203,394
-202,578
-201,742
-200,891
-200,027
-199,152
-198,267
-197,373
-196,471
-195,562
-194,646
-193,726
-192,8
-191,871
-190,938
-190,002
-189,062
-188,117
-187,163
-186,198
-185,219
-184,22
-183,198
-182,149
-181,066
-179,947
-178,787
-177,586
-176,337
-175,037
-173,677
-172,251
-170,757
-169,193
-167,561
-165,866
-164,112
-162,31
-160,477
-158,631
-156,79
-154,97
-153,174
-151,403
-149,659
-147,94
-146,249
-144,58
-142,919
-141,246
-139,546
-137,799
-135,987
-134,085
-132,043
-129,811
-127,337
-124,573
-121,495
-118,091
-114,354
-110,287
-105,902
-101,226
-96,304
-91,195
-85,95
-80,615
-75,234
-69,862
-64,587
-59,516
-54,784
-50,516
-46,816
-43,764
-41,404
-39,781
-38,927
-38,849
-39,538
-40,973
-43,107
-45,948
-49,572
-53,932
-58,867
-64,062
-68,93
-72,88
-75,449
-76,076
-74,233
-69,814
-62,986
-54,448
-45,643
-37,954
-32,521
-30,561
-32,817
-38,991
-48,188
-58,488
-66,527
-68,859
-62,133
-42,741
-9,062
37,906
96,836
165,885
244,634
333,771
429,645
522,633
596,811
637,52
639,06
604,531
546,449
474,254
387,634
286,818
172,58
55,074
-43,007
-106,642
-130,816
-122,066
-99,131
-74,629
-53,487
-35,986
-17,265
3,615
24,075
41,418
52,011
54,528
50,27
41,316
30,733
21,028
13,325
8,26
6,226
7,494
12,011
19,019
27,144
35,189
42,539
48,977
54,467
58,878
62,095
64,287
65,882
67,285
68,699
70,137
71,499
72,745
73,894
74,952
75,875
76,589
77,042
77,209
77,1
76,732
76,107
75,212
74,037
72,593
70,907
69,037
67,061
65,046
63,059
61,146
59,342
57,689
56,224
54,98
53,981
53,241
52,761
52,553
52,629
52,981
53,598
54,442
55,46
56,609
57,851
59,158
60,512
61,898
63,298
64,706
66,124
67,553
69
70,463
71,938
73,427
74,935
76,471
78,053
79,689
81,382
83,132
84,934
86,782
88,667
90,574
92,484
94,379
96,241
98,055
99,807
101,482
103,065
104,538
105,885
107,092
108,147
109,036
109,749
110,276
110,609
110,74
110,666
110,382
109,885
109,173
108,242
107,093
105,726
104,145
102,35
100,346
98,138
95,732
93,137
90,36
87,409
84,295
81,027
77,617
74,077
70,418
66,655
62,799
58,864
54,864
50,812
46,721
42,604
38,473
34,341
30,22
26,122
22,058
18,038
14,073
10,174
6,347
2,602
-1,056
-4,621
-8,087
-11,45
-14,706
-17,852
-20,883
-23,798
-26,592
-29,261
-31,805
-34,22
-36,508
-38,668
-40,699
-42,605
-44,389
-46,053
-47,601
-49,034
-50,352
-51,556
-52,647
-53,626
-54,492
-55,244
-55,884
-56,412
-56,835
-57,155
-57,375
-57,493
-57,504
-57,405
-57,2
-56,888
-56,471
-55,952
-55,336
-54,639
-53,881
-53,087
-52,269
-51,434
-50,58
-49,706
-48,813
-47,9
-46,96
-45,981
-44,947
-43,847
-42,681
-41,442
-40,112
-38,657
-37,025
-35,174
-33,076
-30,715
-28,083
-25,174
-21,99
-18,549
-14,898
-11,096
-7,202
-3,261
0,69
4,604
8,41
12,026
15,361
18,33
20,872
22,927
24,433
25,335
25,602
25,228
24,254
22,737
20,735
18,307
15,516
12,443
9,203
5,909
2,667
-0,417
-3,255
-5,752
-7,799
-9,302
-10,192
-10,419
-9,964
-8,832
-7,032
-4,604
-1,611
1,863
5,699
9,783
14,015
18,281
22,485
26,526
30,298
33,707
36,679
39,134
41,002
42,231
42,788
42,676
41,932
40,609
38,792
36,567
34,024
31,269
28,392
25,465
22,561
19,739
17,053
14,576
12,381
10,521
9,037
7,949
7,249
6,925
6,94
7,237
7,751
8,407
9,147
9,94
10,767
11,613
12,465
13,302
14,106
14,882
15,637
16,377
17,119
17,875
18,674
19,575
20,637
21,913
23,44
25,225
27,258
29,522
31,993
34,635
37,402
40,22
43,014
45,731
48,326
50,765
53,004
54,973
56,61
57,865
58,709
59,136
59,164
58,817
58,131
57,168
55,998
54,716
53,411
52,122
50,857
49,597
48,336
47,105
45,928
44,787
43,634
42,413
41,062
39,547
37,783
35,57
32,783
29,412
25,624
21,814
18,357
15,542
13,762
13,519
15,019
18,098
22,069
25,676
27,988
28,139
24,883
17,418
5,559
-9,067
-22,496
-31,852
-35,622
-34,109
-29,61
-19,172
2,741
41,435
104,019
189,487
292,46
407,199
519,985
617,941
688,434
716,779
699,254
637,974
539,302
419,307
291,757
171,55
76,454
12,912
-17,751
-21,946
-16,556
-10,884
-9,283
-12,247
-12,979
-9,983
-5,547
-1,493
-1,542
-6,816
-15,565
-26,319
-37,292
-46,541
-53,302
-57,349
-58,56
-57,371
-54,379
-50,067
-45,103
-40,29
-36,11
-32,789
-30,42
-28,866
-27,996
-27,751
-27,998
-28,567
-29,313
-30,103
-30,838
-31,47
-31,939
-32,161
-32,051
-31,519
-30,491
-28,944
-26,892
-24,365
-21,416
-18,102
-14,486
-10,658
-6,725
-2,79
1,064
4,769
8,27
11,519
14,466
17,058
19,252
21,03
22,386
23,333
23,9
24,1
23,964
23,536
22,87
22,019
21,023
19,906
18,693
17,404
16,059
14,698
13,361
12,092
10,956
9,998
9,259
8,799
8,657
8,863
9,453
10,447
11,871
13,763
16,148
19,051
22,506
26,508
31,033
36,042
41,446
47,172
53,149
59,277
65,477
71,67
77,763
83,68
89,355
94,696
99,621
104,049
107,878
111,039
113,492
115,208
116,199
116,484
116,079
115,023
113,361
111,132
108,389
105,175
101,518
97,474
93,103
88,475
83,68
78,804
73,913
69,081
64,369
59,818
55,47
51,351
47,465
43,826
40,447
37,345
34,547
32,075
29,929
28,106
26,588
25,339
24,327
23,504
22,807
22,191
21,622
21,072
20,534
19,998
19,443
18,852
18,199
17,455
16,599
15,617
14,494
13,236
11,853
10,369
8,827
7,258
5,682
4,114
2,56
1,019
-0,501
-1,995
-3,463
-4,893
-6,276
-7,606
-8,871
-10,071
-11,209
-12,294
-13,344
-14,376
-15,397
-16,414
-17,427
-18,434
-19,435
-20,424
-21,393
-22,337
-23,253
-24,136
-24,986
-25,798
-26,568
-27,29
-27,956
-28,559
-29,093
-29,553
-29,934
-30,236
-30,455
-30,591
-30,647
-30,624
-30,524
-30,349
-30,101
-29,781
-29,393
-28,94
-28,425
-27,851
-27,224
-26,548
-25,83
-25,075
-24,29
-23,481
-22,654
-21,816
-20,974
-20,135
-19,303
-18,487
-17,691
-16,922
-16,184
-15,484
-14,826
-14,215
-13,653
-13,145
-12,693
-12,3
-11,965
-11,691
-11,477
-11,323
-11,228
-11,189
-11,206
-11,274
-11,39
-11,552
-11,753
-11,989
-12,255
-12,543
-12,849
-13,165
-13,485
-13,802
-14,11
-14,402
-14,671
-14,911
-15,118
-15,284
-15,406
-15,478
-15,497
-15,46
-15,362
-15,203
-14,98
-14,692
-14,34
-13,923
-13,444
-12,906
-12,312
-11,667
-10,976
-10,246
-9,483
-8,693
-7,883
-7,06
-6,229
-5,399
-4,576
-3,769
-2,987
-2,238
-1,53
-0,871
-0,267
0,279
0,764
1,187
1,545
1,833
2,043
2,172
2,213
2,162
2,014
1,769
1,437
1,039
0,593
0,118
-0,365
-0,849
-1,317
-1,752
-2,137
-2,447
-2,658
-2,754
-2,713
-2,508
-2,127
-1,573
-0,884
-0,128
0,624
1,321
1,929
2,412
2,711
2,758
2,481
1,802
0,693
-0,919
-3,183
-6,134
-9,692
-13,613
-17,383
-20,49
-22,596
-23,256
-21,986
-18,727
-13,679
-7,554
-1,802
2,365
4,112
2,463
-3,213
-12,61
-24,804
-37,738
-48,115
-52,844
-49,109
-33,8
-4,2
39,618
95,116
159,028
226,127
295,478
371,142
450,915
529,617
595,662
627,364
613,422
551,408
445,061
312,593
170,427
32,884
-81,835
-163,159
-206,65
-214,124
-198,962
-176,071
-153,779
-135,568
-118,417
-97,466
-73,609
-49,725
-28,616
-13,3
-3,976
0,943
2,419
1,882
1,454
2,149
4,227
7,76
12,249
17,101
22,232
27,411
31,698
34,543
35,814
35,432
33,733
31,063
27,445
22,984
18,1
13,127
8,311
3,883
-0,159
-3,801
-6,905
-9,381
-11,196
-12,345
-12,878
-12,856
-12,288
-11,21
-9,69
-7,808
-5,675
-3,388
-1,006
1,419
3,857
6,275
8,635
10,917
13,111
15,219
17,249
19,211
21,105
22,946
24,756
26,564
28,406
30,31
32,29
34,356
36,514
38,766
41,114
43,553
46,071
48,659
51,307
54,007
56,753
59,536
62,344
65,163
67,979
70,78
73,555
76,293
78,982
81,613
84,176
86,663
89,068
91,383
93,6
95,709
97,701
99,569
101,303
102,897
104,341
105,629
106,754
107,712
108,498
109,108
109,538
109,787
109,853
109,735
109,434
108,949
108,284
107,439
106,417
105,223
103,859
102,33
100,64
98,794
96,797
94,655
92,373
89,956
87,411
84,744
81,96
79,067
76,071
72,977
69,794
66,527
63,183
59,77
56,294
52,762
49,179
45,554
41,892
38,2
34,483
30,747
26,999
23,244
19,488
15,735
11,992
8,264
4,557
0,877
-2,772
-6,382
-9,948
-13,465
-16,924
-20,321
-23,649
-26,902
-30,074
-33,157
-36,148
-39,038
-41,823
-44,496
-47,052
-49,487
-51,794
-53,971
-56,013
-57,917
-59,679
-61,298
-62,77
-64,095
-65,27
-66,296
-67,17
-67,895
-68,469
-68,895
-69,175
-69,311
-69,306
-69,165
-68,892
-68,493
-67,973
-67,339
-66,598
-65,756
-64,823
-63,807
-62,717
-61,562
-60,353
-59,098
-57,81
-56,498
-55,172
-53,843
-52,521
-51,216
-49,938
-48,695
-47,499
-46,357
-45,279
-44,275
-43,351
-42,517
-41,78
-41,147
-40,624
-40,216
-39,928
-39,765
-39,728
-39,82
-40,043
-40,395
-40,877
-41,489
-42,226
-43,087
-44,067
-45,162
-46,368
-47,678
-49,086
-50,583
-52,161
-53,809
-55,517
-57,276
-59,072
-60,895
-62,732
-64,57
-66,399
-68,207
-69,98
-71,703
-73,356
-74,925
-76,399
-77,771
-79,033
-80,185
-81,226
-82,165
-83,017
-83,795
-84,51
-85,169
-85,776
-86,336
-86,855
-87,346
-87,823
-88,296
-88,768
-89,236
-89,693
-90,122
-90,495
-90,767
-90,877
-90,769
-90,398
-89,73
-88,749
-87,442
-85,804
-83,83
-81,52
-78,881
-75,927
-72,682
-69,179
-65,47
-61,628
-57,752
-53,968
-50,401
-47,163
-44,346
-42,021
-40,238
-39,034
-38,443
-38,484
-39,174
-40,535
-42,586
-45,351
-48,841
-53,045
-57,908
-63,329
-69,211
-75,477
-82,065
-88,919
-96,001
-103,255
-110,68
-118,384
-126,333
-134,34
-142,143
-149,288
-155,37
-160,152
-163,181
-163,861
-162,125
-158,268
-152,857
-147,016
-141,631
-137,357
-135,493
-137,362
-142,051
-147,042
-149,928
-148,297
-143,791
-140,474
-137,139
-128,431
-105,569
-58,469
15,234
110,136
218,257
329,618
433,868
521,129
580,107
600,927
579,885
520,848
432,424
323,262
202,569
78,982
-36,525
-127,691
-184,349
-204,985
-197,441
-179,062
-162,086
-151,317
-145,905
-139,9
-131,638
-123,026
-116,262
-114,264
-117,149
-122,922
-129,976
-136,403
-140,667
-142,335
-141,268
-137,666
-132,208
-125,568
-118,341
-111,218
-104,802
-99,386
-95,095
-91,891
-89,595
-88,071
-87,198
-86,823
-86,795
-86,987
-87,301
-87,658
-87,993
-88,219
-88,236
-87,953
-87,307
-86,273
-84,843
-83,025
-80,837
-78,298
-75,445
-72,324
-68,976
-65,447
-61,781
-58,018
-54,207
-50,395
-46,631
-42,957
-39,406
-35,993
-32,727
-29,612
-26,643
-23,816
-21,122
-18,548
-16,083
-13,72
-11,45
-9,268
-7,164
-5,128
-3,151
-1,224
0,662
2,512
4,33
6,122
7,89
9,636
11,363
13,07
14,759
16,434
18,094
19,743
21,382
23,009
24,626
26,231
27,823
29,397
30,952
32,481
33,982
35,447
36,872
38,25
39,575
40,84
42,038
43,163
44,208
45,164
46,027
46,789
47,444
47,986
48,41
48,71
48,882
48,921
48,825
48,589
48,213
47,693
47,03
46,224
45,275
44,186
42,958
41,596
40,102
38,482
36,742
34,886
32,922
30,857
28,698
26,453
24,13
21,737
19,283
16,775
14,223
11,634
9,016
6,377
3,725
1,068
-1,588
-4,236
-6,868
-9,479
-12,062
-14,613
-17,125
-19,595
-22,018
-24,392
-26,713
-28,979
-31,188
-33,338
-35,429
-37,459
-39,429
-41,337
-43,184
-44,969
-46,694
-48,357
-49,961
-51,505
-52,989
-54,413
-55,778
-57,082
-58,326
-59,51
-60,632
-61,692
-62,689
-63,624
-64,495
-65,303
-66,047
-66,725
-67,339
-67,886
-68,366
-68,778
-69,121
-69,395
-69,597
-69,729
-69,788
-69,775
-69,689
-69,53
-69,298
-68,994
-68,62
-68,176
-67,663
-67,085
-66,443
-65,742
-64,984
-64,173
-63,314
-62,41
-61,467
-60,489
-59,48
-58,443
-57,382
-56,301
-55,203
-54,093
-52,972
-51,845
-50,716
-49,588
-48,466
-47,354
-46,253
-45,164
-44,089
-43,029
-41,985
-40,954
-39,936
-38,927
-37,924
-36,928
-35,935
-34,94
-33,935
-32,912
-31,864
-30,789
-29,687
-28,558
-27,406
-26,235
-25,056
-23,889
-22,75
-21,651
-20,601
-19,605
-18,67
-17,809
-17,037
-16,365
-15,794
-15,313
-14,91
-14,567
-14,257
-13,941
-13,566
-13,064
-12,389
-11,501
-10,375
-8,992
-7,332
-5,369
-3,087
-0,477
2,449
5,662
9,128
12,798
16,598
20,439
24,198
27,748
30,997
33,863
36,286
38,215
39,594
40,373
40,514
39,985
38,771
36,874
34,306
31,091
27,27
22,904
18,088
12,935
7,546
2
-3,663
-9,405
-15,174
-20,914
-26,535
-32,014
-37,421
-42,721
-47,757
-52,262
-55,794
-57,98
-58,626
-57,366
-53,732
-47,674
-39,447
-29,773
-19,93
-11,077
-4,338
-1,078
-2,356
-7,141
-12,796
-16,464
-15,519
-11,685
-8,43
-5,316
1,428
21,826
67,103
141,74
243,525
361,454
480,629
585,095
659,794
695,877
686,31
632,254
541,308
419,914
282,846
144,147
17,425
-78,617
-137,393
-160,261
-155,875
-142,746
-131,212
-124,183
-120,248
-112,565
-99,724
-85,006
-71,425
-62,384
-58,507
-57,981
-59,403
-61,405
-62,639
-62,14
-59,347
-54,189
-47,072
-38,688
-29,627
-20,339
-11,345
-3,158
3,918
9,749
14,353
17,89
20,495
22,258
23,298
23,742
23,7
23,285
22,59
21,688
20,64
19,485
18,254
16,982
15,703
14,458
13,289
12,22
11,262
10,424
9,715
9,144
8,707
8,384
8,157
8,013
7,965
8,049
8,288
8,699
9,294
10,069
11,027
12,18
13,535
15,103
16,893
18,907
21,149
23,624
26,323
29,224
32,288
35,454
38,674
41,917
45,152
48,36
51,525
54,618
57,62
60,509
63,254
65,837
68,239
70,441
72,445
74,262
75,914
77,443
78,879
80,242
81,547
82,801
84,007
85,171
86,296
87,382
88,437
89,464
90,466
91,448
92,403
93,318
94,178
94,954
95,624
96,17
96,579
96,84
96,948
96,897
96,684
96,31
95,774
95,072
94,201
93,159
91,942
90,554
88,997
87,276
85,399
83,371
81,197
78,884
76,437
73,862
71,164
68,347
65,419
62,388
59,261
56,052
52,77
49,429
46,04
42,617
39,172
35,718
32,268
28,834
25,427
22,06
18,745
15,493
12,315
9,223
6,227
3,337
0,562
-2,089
-4,607
-6,986
-9,217
-11,295
-13,215
-14,971
-16,559
-17,977
-19,222
-20,293
-21,191
-21,917
-22,473
-22,863
-23,092
-23,166
-23,09
-22,873
-22,521
-22,043
-21,448
-20,743
-19,939
-19,044
-18,068
-17,02
-15,91
-14,747
-13,542
-12,303
-11,04
-9,762
-8,478
-7,197
-5,927
-4,677
-3,454
-2,266
-1,118
-0,016
1,035
2,033
2,975
3,861
4,688
5,458
6,172
6,831
7,436
7,989
8,493
8,951
9,37
9,754
10,109
10,439
10,752
11,053
11,352
11,653
11,961
12,282
12,622
12,99
13,397
13,853
14,358
14,914
15,519
16,17
16,862
17,583
18,311
19,029
19,719
20,373
20,986
21,546
22,041
22,452
22,761
22,966
23,077
23,103
23,063
22,981
22,887
22,835
22,892
23,111
23,532
24,178
25,065
26,214
27,661
29,435
31,552
34,006
36,765
39,795
43,053
46,472
49,971
53,431
56,721
59,738
62,403
64,652
66,43
67,666
68,265
68,131
67,188
65,383
62,697
59,14
54,729
49,494
43,497
36,827
29,572
21,827
13,632
4,944
-4,161
-13,476
-22,673
-31,199
-38,521
-44,292
-48,049
-49,254
-47,847
-44,105
-38,675
-32,967
-28,184
-25,055
-24,643
-27,881
-34,574
-43,852
-54,041
-62,105
-65,254
-61,169
-46,699
-18,721
23,201
76,85
139,187
205,582
274,252
348,645
428,471
508,095
578,533
623,288
627,116
586,517
501,956
380,224
239,876
96,775
-30,591
-119,961
-165,86
-171,825
-149,462
-121,032
-98,771
-85,792
-80,665
-76,011
-69,016
-61,496
-55,713
-54,571
-58,231
-64,662
-71,831
-77,535
-80,719
-81,333
-79,426
-75,497
-70,206
-64,124
-57,97
-52,464
-47,958
-44,563
-42,265
-40,844
-40,092
-39,856
-39,931
-40,133
-40,345
-40,466
-40,426
-40,179
-39,664
-38,826
-37,639
-36,087
-34,174
-31,928
-29,398
-26,659
-23,818
-20,972
-18,194
-15,538
-13,04
-10,737
-8,658
-6,82
-5,217
-3,821
-2,603
-1,544
-0,629
0,169
0,887
1,588
2,344
3,212
4,231
5,43
6,825
8,434
10,264
12,302
14,515
16,855
19,287
21,791
24,354
26,963
29,601
32,241
34,857
37,436
39,967
42,438
44,841
47,162
49,396
51,549
53,633
55,667
57,659
59,61
61,516
63,372
65,172
66,91
68,574
70,151
71,626
72,988
74,229
75,339
76,309
77,128
77,781
78,257
78,546
78,637
78,525
78,203
77,665
76,908
75,932
74,738
73,326
71,698
69,854
67,797
65,53
63,057
60,382
57,51
54,446
51,2
47,778
44,191
40,449
36,562
32,541
28,4
24,151
19,806
15,378
10,88
6,327
1,731
-2,895
-7,536
-12,181
-16,816
-21,428
-26,006
-30,537
-35,012
-39,42
-43,75
-47,994
-52,143
-56,187
-60,121
-63,936
-67,625
-71,184
-74,605
-77,885
-81,019
-84,002
-86,832
-89,506
-92,022
-94,38
-96,578
-98,618
-100,498
-102,222
-103,791
-105,206
-106,471
-107,587
-108,559
-109,39
-110,084
-110,647
-111,083
-111,398
-111,596
-111,684
-111,671
-111,561
-111,358
-111,067
-110,692
-110,242
-109,727
-109,155
-108,531
-107,865
-107,163
-106,437
-105,7
-104,952
-104,199
-103,442
-102,683
-101,931
-101,197
-100,486
-99,809
-99,164
-98,547
-97,962
-97,413
-96,897
-96,411
-95,947
-95,494
-95,065
-94,672
-94,325
-94,037
-93,803
-93,619
-93,487
-93,404
-93,374
-93,404
-93,487
-93,617
-93,801
-94,042
-94,352
-94,743
-95,192
-95,672
-96,163
-96,639
-97,095
-97,526
-97,922
-98,276
-98,588
-98,863
-99,12
-99,376
-99,632
-99,887
-100,132
-100,355
-100,572
-100,803
-101,064
-101,371
-101,726
-102,125
-102,563
-103,029
-103,486
-103,887
-104,163
-104,247
-104,09
-103,657
-102,926
-101,888
-100,532
-98,848
-96,833
-94,487
-91,811
-88,821
-85,538
-82,005
-78,289
-74,483
-70,705
-67,078
-63,713
-60,701
-58,109
-55,987
-54,362
-53,256
-52,684
-52,676
-53,29
-54,573
-56,562
-59,264
-62,651
-66,682
-71,303
-76,442
-82,01
-87,941
-94,182
-100,753
-107,777
-115,265
-123,122
-131,163
-138,987
-146,135
-152,22
-156,708
-158,936
-158,681
-156,053
-151,341
-145,653
-140,419
-136,822
-136,4
-139,621
-144,887
-150,556
-155,947
-162,786
-174,15
-189,637
-202,502
-198,443
-164,47
-97,542
-3,607
101,495
204,548
304,413
401,914
496,99
583,129
641,981
656,391
620,389
536,061
414,677
275,286
132,534
2,203
-97,84
-162,177
-190,892
-191,851
-183,188
-174,528
-168,885
-165,905
-159,206
-147,553
-134,531
-123,045
-116,447
-115,672
-119,058
-124,991
-131,93
-138,306
-142,859
-144,951
-144,449
-141,602
-137,013
-131,246
-124,736
-118,067
-111,821
-106,275
-101,523
-97,475
-93,9
-90,648
-87,629
-84,72
-81,811
-78,831
-75,737
-72,545
-69,312
-66,075
-62,869
-59,708
-56,604
-53,601
-50,741
-48,079
-45,666
-43,532
-41,695
-40,169
-38,958
-38,048
-37,418
-37,01
-36,747
-36,558
-36,374
-36,141
-35,821
-35,366
-34,732
-33,883
-32,788
-31,433
-29,821
-27,948
-25,818
-23,452
-20,876
-18,141
-15,312
-12,442
-9,575
-6,75
-3,987
-1,308
1,265
3,726
6,075
8,314
10,451
12,491
14,434
16,29
18,072
19,798
21,494
23,177
24,855
26,537
28,224
29,914
31,605
33,288
34,949
36,575
38,155
39,678
41,137
42,521
43,82
45,023
46,118
47,095
47,948
48,668
49,248
49,683
49,968
50,101
50,08
49,905
49,572
49,083
48,435
47,629
46,666
45,548
44,276
42,854
41,285
39,575
37,73
35,759
33,667
31,465
29,161
26,764
24,286
21,735
19,123
16,46
13,757
11,026
8,276
5,519
2,765
0,026
-2,687
-5,366
-7,999
-10,578
-13,094
-15,537
-17,9
-20,175
-22,355
-24,433
-26,403
-28,26
-29,999
-31,615
-33,105
-34,468
-35,702
-36,805
-37,779
-38,623
-39,339
-39,929
-40,396
-40,742
-40,971
-41,088
-41,096
-41,001
-40,809
-40,525
-40,156
-39,707
-39,187
-38,602
-37,958
-37,263
-36,524
-35,749
-34,944
-34,117
-33,276
-32,427
-31,577
-30,734
-29,903
-29,089
-28,298
-27,534
-26,801
-26,101
-25,437
-24,809
-24,219
-23,666
-23,152
-22,674
-22,232
-21,824
-21,449
-21,105
-20,789
-20,499
-20,229
-19,974
-19,729
-19,488
-19,244
-18,989
-18,717
-18,416
-18,081
-17,703
-17,274
-16,785
-16,224
-15,578
-14,838
-14,001
-13,063
-12,025
-10,892
-9,667
-8,364
-7,001
-5,596
-4,159
-2,701
-1,223
0,267
1,756
3,233
4,688
6,119
7,532
8,937
10,342
11,769
13,246
14,811
16,519
18,406
20,492
22,791
25,298
28,013
30,941
34,071
37,381
40,84
44,403
48,025
51,67
55,278
58,775
62,076
65,083
67,722
69,949
71,731
73,054
73,903
74,266
74,153
73,6
72,644
71,329
69,695
67,752
65,517
63,03
60,331
57,477
54,531
51,513
48,415
45,232
41,93
38,472
34,85
30,973
26,68
21,955
16,884
11,743
7,092
3,435
1,118
0,625
2,431
6,547
12,751
20,209
27,262
32,497
34,806
32,982
26,346
15,356
1,039
-14,323
-26,835
-32,851
-28,83
-10,729
23,473
72,779
135,424
207,707
286,466
372,672
465,874
561,998
652,653
723,517
758,159
744,968
679,263
562,877
411,054
246,43
93,04
-23,312
-91,982
-116,229
-105,488
-77,552
-44,2
-11,624
12,75
26,48
27,987
18,268
5,217
-4,724
-8,564
-6,533
-3,503
-2,759
-4,012
-5,884
-6,018
-3,328
1,471
7,529
14,069
20,496
26,404
31,515
35,683
38,916
41,395
43,237
44,457
45,116
45,322
45,176
44,785
44,214
43,457
42,557
41,591
40,617
39,692
38,841
38,054
37,339
36,719
36,223
35,893
35,752
35,8
36,039
36,466
37,085
37,915
38,955
40,185
41,597
43,176
44,921
46,843
48,934
51,17
53,522
55,949
58,418
60,918
63,429
65,935
68,418
70,855
73,233
75,553
77,813
80,008
82,132
84,174
86,135
88,023
89,85
91,631
93,375
95,085
96,762
98,41
100,028
101,617
103,171
104,681
106,139
107,539
108,874
110,142
111,333
112,439
113,448
114,352
115,14
115,807
116,345
116,746
117,004
117,116
117,077
116,885
116,538
116,033
115,367
114,538
113,544
112,384
111,059
109,566
107,908
106,085
104,1
101,956
99,656
97,205
94,607
91,868
88,993
85,99
82,866
79,628
76,286
72,847
69,322
65,72
62,05
58,323
54,549
50,738
46,902
43,049
39,192
35,339
31,501
27,687
23,907
20,171
16,486
12,862
9,307
5,827
2,431
-0,875
-4,085
-7,193
-10,194
-13,085
-15,862
-18,522
-21,062
-23,481
-25,778
-27,953
-30,004
-31,932
-33,738
-35,424
-36,991
-38,441
-39,778
-41,003
-42,122
-43,137
-44,051
-44,871
-45,598
-46,238
-46,795
-47,273
-47,677
-48,012
-48,282
-48,492
-48,648
-48,752
-48,811
-48,828
-48,805
-48,747
-48,655
-48,531
-48,379
-48,198
-47,991
-47,759
-47,504
-47,225
-46,925
-46,604
-46,262
-45,899
-45,515
-45,11
-44,684
-44,236
-43,767
-43,276
-42,763
-42,228
-41,672
-41,093
-40,49
-39,862
-39,208
-38,524
-37,81
-37,062
-36,28
-35,462
-34,609
-33,72
-32,798
-31,845
-30,863
-29,855
-28,827
-27,779
-26,713
-25,633
-24,539
-23,434
-22,322
-21,207
-20,089
-18,975
-17,872
-16,785
-15,719
-14,677
-13,657
-12,658
-11,685
-10,744
-9,841
-8,989
-8,196
-7,478
-6,859
-6,359
-5,999
-5,786
-5,714
-5,778
-5,973
-6,3
-6,764
-7,364
-8,08
-8,902
-9,817
-10,808
-11,852
-12,907
-13,898
-14,76
-15,434
-15,88
-16,089
-16,049
-15,743
-15,161
-14,294
-13,151
-11,767
-10,167
-8,366
-6,406
-4,341
-2,27
-0,336
1,341
2,651
3,484
3,748
3,346
2,173
0,169
-2,732
-6,65
-11,593
-17,471
-24,109
-31,103
-38,011
-44,482
-50,046
-54,117
-56,416
-57,018
-56,339
-55,456
-55,494
-57,194
-61,414
-69,029
-80,199
-94,233
-109,663
-123,775
-133,374
-135,709
-127,837
-106,472
-70,388
-21,096
39,496
107,847
181,736
263,623
352,673
442,69
524,438
582,115
601,055
577,192
510,407
406,194
279,731
144,454
17,76
-78,809
-137,218
-157,203
-147,911
-129,392
-112,91
-102,421
-97,271
-90,405
-80,084
-68,849
-59,145
-54,574
-55,989
-61,578
-69,645
-78,164
-85,265
-90,214
-92,752
-92,884
-91,107
-88,009
-84,114
-80,071
-76,551
-73,894
-72,215
-71,501
-71,553
-72,211
-73,373
-74,883
-76,582
-78,355
-80,111
-81,781
-83,319
-84,651
-85,687
-86,366
-86,643
-86,502
-85,95
-84,996
-83,659
-81,969
-79,96
-77,669
-75,131
-72,379
-69,449
-66,381
-63,219
-60,011
-56,8
-53,622
-50,505
-47,467
-44,518
-41,664
-38,906
-36,239
-33,658
-31,159
-28,741
-26,401
-24,138
-21,95
-19,833
-17,783
-15,796
-13,868
-11,997
-10,181
-8,42
-6,712
-5,058
-3,459
-1,916
-0,429
1,003
2,382
3,71
4,989
6,221
7,409
8,553
9,656
10,718
11,74
12,72
13,659
14,554
15,403
16,203
16,951
17,644
18,276
18,845
19,345
19,771
20,12
20,387
20,567
20,656
20,651
20,547
20,342
20,032
19,615
19,089
18,453
17,705
16,843
15,867
14,776
13,571
12,251
10,818
9,272
7,615
5,851
3,981
2,011
-0,055
-2,212
-4,454
-6,774
-9,166
-11,622
-14,135
-16,698
-19,301
-21,937
-24,598
-27,278
-29,967
-32,659
-35,347
-38,025
-40,686
-43,325
-45,937
-48,516
-51,059
-53,559
-56,014
-58,419
-60,771
-63,066
-65,301
-67,473
-69,58
-71,619
-73,589
-75,489
-77,318
-79,074
-80,758
-82,371
-83,911
-85,381
-86,78
-88,11
-89,372
-90,567
-91,696
-92,759
-93,757
-94,69
-95,559
-96,364
-97,103
-97,776
-98,383
-98,922
-99,392
-99,793
-100,124
-100,384
-100,572
-100,69
-100,736
-100,712
-100,616
-100,45
-100,215
-99,911
-99,539
-99,101
-98,598
-98,031
-97,403
-96,714
-95,968
-95,166
-94,311
-93,406
-92,454
-91,459
-90,425
-89,356
-88,258
-87,135
-85,994
-84,841
-83,681
-82,522
-81,368
-80,226
-79,102
-77,998
-76,92
-75,87
-74,851
-73,866
-72,917
-72,004
-71,131
-70,297
-69,505
-68,754
-68,046
-67,379
-66,75
-66,158
-65,601
-65,076
-64,58
-64,108
-63,655
-63,218
-62,794
-62,379
-61,967
-61,549
-61,113
-60,652
-60,164
-59,646
-59,099
-58,525
-57,928
-57,318
-56,714
-56,133
-55,585
-55,079
-54,617
-54,206
-53,86
-53,591
-53,414
-53,324
-53,309
-53,355
-53,445
-53,555
-53,652
-53,678
-53,566
-53,265
-52,735
-51,952
-50,892
-49,513
-47,775
-45,643
-43,102
-40,164
-36,855
-33,201
-29,236
-25,013
-20,611
-16,15
-11,757
-7,527
-3,541
0,13
3,398
6,117
8,149
9,378
9,722
9,163
7,677
5,209
1,724
-2,78
-8,25
-14,54
-21,571
-29,382
-37,905
-46,957
-56,137
-64,786
-72,377
-78,557
-82,821
-84,643
-83,846
-80,491
-75,374
-69,881
-64,849
-61,154
-60,074
-62,241
-67,69
-74,974
-79,98
-79,721
-73,113
-60,283
-43,48
-20,659
12,727
60,796
128,975
216,166
318,756
432,362
544,279
641,335
708,097
726,707
692,452
607,625
480,487
332,166
180,136
42,758
-59,574
-122,246
-145,132
-137,223
-117,107
-92,991
-72,727
-58,702
-46,835
-40,09
-36,685
-35,123
-36,651
-37,9
-39,738
-43,31
-47,089
-50,984
-53,24
-52,295
-48,515
-42,324
-34,51
-25,984
-17,305
-9,062
-1,693
4,64
9,938
14,353
17,975
20,827
22,96
24,422
25,289
25,642
25,525
24,975
24,059
22,862
21,478
19,998
18,473
16,933
15,413
13,942
12,574
11,379
10,41
9,722
9,348
9,296
9,571
10,166
11,062
12,232
13,641
15,253
17,045
19,006
21,119
23,366
25,713
28,108
30,515
32,897
35,228
37,492
39,675
41,767
43,768
45,686
47,529
49,31
51,036
52,705
54,325
55,902
57,45
58,988
60,528
62,079
63,648
65,236
66,845
68,475
70,121
71,772
73,42
75,055
76,67
78,258
79,811
81,319
82,772
84,16
85,471
86,698
87,83
88,858
89,775
90,572
91,242
91,781
92,182
92,439
92,548
92,5
92,292
91,92
91,379
90,667
89,78
88,718
87,481
86,069
84,484
82,73
80,808
78,723
76,481
74,087
71,548
68,871
66,066
63,141
60,105
56,97
53,746
50,443
47,074
43,65
40,182
36,683
33,163
29,636
26,112
22,603
19,119
15,673
12,274
8,931
5,655
2,454
-0,663
-3,689
-6,618
-9,443
-12,159
-14,761
-17,246
-19,609
-21,849
-23,964
-25,952
-27,814
-29,549
-31,159
-32,646
-34,011
-35,257
-36,389
-37,41
-38,323
-39,134
-39,847
-40,467
-40,998
-41,447
-41,817
-42,115
-42,344
-42,511
-42,62
-42,675
-42,682
-42,644
-42,565
-42,45
-42,303
-42,126
-41,925
-41,701
-41,458
-41,198
-40,926
-40,642
-40,349
-40,048
-39,743
-39,433
-39,12
-38,804
-38,488
-38,172
-37,856
-37,542
-37,229
-36,92
-36,615
-36,314
-36,019
-35,73
-35,45
-35,178
-34,916
-34,666
-34,428
-34,204
-33,995
-33,801
-33,622
-33,458
-33,31
-33,176
-33,056
-32,951
-32,859
-32,78
-32,716
-32,666
-32,63
-32,607
-32,594
-32,591
-32,595
-32,601
-32,607
-32,609
-32,601
-32,58
-32,543
-32,486
-32,406
-32,296
-32,149
-31,962
-31,732
-31,459
-31,146
-30,797
-30,418
-30,021
-29,621
-29,23
-28,861
-28,524
-28,223
-27,963
-27,747
-27,576
-27,455
-27,382
-27,347
-27,336
-27,326
-27,293
-27,211
-27,047
-26,761
-26,323
-25,707
-24,891
-23,868
-22,638
-21,209
-19,592
-17,797
-15,839
-13,746
-11,555
-9,319
-7,097
-4,937
-2,899
-1,045
0,577
1,923
2,956
3,661
4,029
4,064
3,776
3,163
2,202
0,87
-0,844
-2,925
-5,334
-8,032
-10,994
-14,203
-17,638
-21,275
-25,093
-29,069
-33,267
-37,818
-42,693
-47,778
-52,827
-57,38
-61,035
-63,508
-64,307
-62,954
-59,519
-54,154
-47,349
-40,446
-34,675
-31,144
-31,396
-35,257
-40,371
-45,285
-49,002
-52,672
-59,778
-69,2
-73,582
-61,647
-23,847
42,169
129,133
224,217
320,472
413,76
499,427
572,974
620,416
625,937
584,852
497,501
372,673
230,509
86,512
-42,136
-135,499
-189,864
-205,805
-190,446
-161,974
-127,16
-91,503
-61,786
-37,271
-23,913
-24,093
-31,551
-43,1
-52,226
-55,288
-56,108
-55,923
-55,915
-56,792
-56,053
-52,963
-48,265
-42,438
-36,634
-31,761
-27,884
-25,048
-23,317
-22,479
-22,356
-22,838
-23,747
-24,946
-26,376
-27,946
-29,565
-31,18
-32,73
-34,184
-35,512
-36,667
-37,609
-38,289
-38,682
-38,797
-38,646
-38,241
-37,599
-36,723
-35,628
-34,35
-32,918
-31,363
-29,701
-27,917
-26,012
-24
-21,902
-19,755
-17,579
-15,376
-13,147
-10,9
-8,64
-6,377
-4,11
-1,825
0,485
2,821
5,176
7,53
9,874
12,21
14,541
16,88
19,234
21,601
23,986
26,392
28,823
31,279
33,753
36,234
38,712
41,181
43,637
46,078
48,498
50,887
53,237
55,538
57,78
59,951
62,043
64,041
65,934
67,714
69,372
70,902
72,297
73,549
74,652
75,6
76,387
77,007
77,453
77,722
77,808
77,709
77,421
76,943
76,276
75,418
74,372
73,14
71,724
70,129
68,361
66,423
64,325
62,072
59,674
57,141
54,481
51,706
48,826
45,852
42,797
39,671
36,487
33,256
29,989
26,698
23,395
20,089
16,793
13,515
10,267
7,059
3,898
0,795
-2,243
-5,209
-8,095
-10,896
-13,606
-16,222
-18,738
-21,153
-23,462
-25,666
-27,762
-29,75
-31,631
-33,404
-35,071
-36,634
-38,094
-39,455
-40,717
-41,884
-42,96
-43,946
-44,845
-45,662
-46,398
-47,058
-47,643
-48,157
-48,603
-48,983
-49,299
-49,555
-49,751
-49,89
-49,974
-50,003
-49,979
-49,902
-49,773
-49,592
-49,359
-49,075
-48,738
-48,35
-47,911
-47,419
-46,877
-46,284
-45,641
-44,948
-44,207
-43,419
-42,586
-41,709
-40,792
-39,836
-38,844
-37,82
-36,767
-35,688
-34,588
-33,471
-32,34
-31,201
-30,059
-28,92
-27,787
-26,669
-25,57
-24,496
-23,455
-22,451
-21,492
-20,582
-19,727
-18,932
-18,2
-17,535
-16,94
-16,418
-15,969
-15,595
-15,298
-15,077
-14,932
-14,865
-14,872
-14,952
-15,1
-15,311
-15,581
-15,902
-16,269
-16,674
-17,107
-17,56
-18,027
-18,497
-18,961
-19,405
-19,814
-20,174
-20,474
-20,708
-20,87
-20,959
-20,977
-20,931
-20,837
-20,71
-20,564
-20,41
-20,252
-20,094
-19,946
-19,818
-19,724
-19,676
-19,67
-19,697
-19,742
-19,782
-19,78
-19,688
-19,435
-18,953
-18,187
-17,092
-15,643
-13,826
-11,621
-9,016
-6
-2,569
1,253
5,428
9,912
14,638
19,519
24,446
29,272
33,848
38,052
41,779
44,952
47,514
49,407
50,575
50,977
50,569
49,341
47,293
44,414
40,712
36,22
31,008
25,211
18,961
12,348
5,455
-1,646
-8,902
-16,215
-23,544
-30,941
-38,328
-45,536
-52,339
-58,342
-63,206
-66,71
-68,407
-67,743
-64,657
-59,389
-52,408
-44,645
-36,847
-29,719
-24,7
-23,271
-24,629
-26,319
-26,152
-22,163
-16,681
-14,294
-13,769
-9,421
8,1
49,53
117,536
206,781
310,105
418,82
522,806
613,247
678,078
702,13
679,035
608,297
495,567
359,168
216,309
85,119
-13,927
-74,737
-98,314
-93,874
-80,941
-69,532
-63,246
-61,394
-56,339
-46,747
-35,52
-25,008
-19,179
-19,026
-22,602
-28,407
-34,649
-39,391
-41,916
-42,023
-39,679
-35,473
-30,107
-24,112
-18,134
-12,88
-8,711
-5,759
-4,039
-3,335
-3,456
-4,282
-5,626
-7,304
-9,175
-11,11
-13,001
-14,772
-16,331
-17,572
-18,425
-18,846
-18,813
-18,337
-17,432
-16,125
-14,45
-12,451
-10,172
-7,658
-4,953
-2,103
0,842
3,828
6,802
9,715
12,531
15,225
17,781
20,192
22,459
24,585
26,578
28,447
30,201
31,844
33,382
34,821
36,167
37,43
38,618
39,741
40,807
41,823
42,796
43,729
44,628
45,496
46,336
47,15
47,94
48,712
49,469
50,215
50,953
51,686
52,416
53,145
53,872
54,597
55,318
56,031
56,734
57,421
58,09
58,733
59,345
59,921
60,452
60,933
61,355
61,71
61,989
62,185
62,289
62,292
62,187
61,964
61,616
61,137
60,521
59,76
58,851
57,788
56,568
55,188
53,646
51,941
50,074
48,046
45,858
43,516
41,024
38,387
35,614
32,71
29,685
26,549
23,31
19,979
16,567
13,085
9,546
5,96
2,341
-1,299
-4,948
-8,593
-12,223
-15,826
-19,39
-22,904
-26,359
-29,743
-33,049
-36,266
-39,388
-42,407
-45,316
-48,11
-50,785
-53,337
-55,764
-58,063
-60,235
-62,279
-64,197
-65,989
-67,658
-69,206
-70,637
-71,954
-73,162
-74,264
-75,265
-76,17
-76,985
-77,714
-78,362
-78,934
-79,435
-79,871
-80,244
-80,561
-80,825
-81,039
-81,209
-81,336
-81,424
-81,476
-81,493
-81,478
-81,432
-81,354
-81,245
-81,106
-80,935
-80,731
-80,495
-80,225
-79,92
-79,579
-79,202
-78,787
-78,334
-77,844
-77,314
-76,747
-76,141
-75,499
-74,821
-74,109
-73,365
-72,592
-71,791
-70,967
-70,122
-69,26
-68,385
-67,5
-66,612
-65,724
-64,842
-63,971
-63,117
-62,285
-61,482
-60,714
-59,985
-59,303
-58,67
-58,093
-57,575
-57,118
-56,727
-56,403
-56,147
-55,962
-55,847
-55,802
-55,827
-55,92
-56,081
-56,306
-56,59
-56,93
-57,319
-57,751
-58,218
-58,712
-59,224
-59,746
-60,267
-60,779
-61,273
-61,738
-62,164
-62,537
-62,846
-63,085
-63,25
-63,337
-63,347
-63,283
-63,15
-62,961
-62,726
-62,454
-62,15
-61,816
-61,456
-61,07
-60,663
-60,241
-59,802
-59,339
-58,842
-58,295
-57,68
-56,978
-56,161
-55,191
-54,04
-52,689
-51,129
-49,364
-47,401
-45,254
-42,947
-40,501
-37,949
-35,333
-32,685
-30,054
-27,485
-25,021
-22,722
-20,651
-18,858
-17,38
-16,239
-15,436
-14,969
-14,824
-14,965
-15,363
-15,977
-16,782
-17,784
-18,981
-20,37
-21,949
-23,681
-25,538
-27,53
-29,67
-31,992
-34,556
-37,376
-40,538
-44,224
-48,466
-53,19
-58,149
-62,793
-66,623
-69,304
-70,352
-69,284
-66,094
-61,043
-54,975
-49,505
-45,945
-45,258
-48,504
-56,235
-67,915
-82,398
-97,347
-108,937
-113,688
-108,35
-89,196
-54,823
-6,795
53,224
121,878
198,048
284,971
380,407
477,451
562,031
613,802
623,126
589,398
521,184
434,244
335,516
230,158
125,281
28,419
-46,789
-91,593
-108,422
-107,105
-100,299
-95,855
-94,163
-90,832
-83,32
-72,987
-62,768
-56,136
-54,33
-56,218
-60,385
-65,473
-70,085
-73,107
-73,94
-72,344
-68,599
-63,36
-57,209
-50,648
-44,253
-38,565
-33,89
-30,369
-27,953
-26,453
-25,732
-25,668
-26,118
-26,931
-27,978
-29,153
-30,363
-31,533
-32,57
-33,37
-33,86
-33,995
-33,754
-33,137
-32,154
-30,824
-29,174
-27,25
-25,089
-22,731
-20,216
-17,582
-14,873
-12,137
-9,42
-6,767
-4,211
-1,771
0,542
2,724
4,776
6,705
8,522
10,24
11,872
13,425
14,908
16,327
17,691
19,009
20,293
21,55
22,789
24,016
25,236
26,452
27,667
28,881
30,094
31,304
32,511
33,715
34,916
36,115
37,31
38,502
39,688
40,868
42,038
43,196
44,338
45,458
46,551
47,613
48,638
49,619
50,551
51,426
52,239
52,982
53,649
54,233
54,726
55,121
55,411
55,591
55,654
55,594
55,407
55,089
54,636
54,045
53,315
52,444
51,432
50,278
48,983
47,549
45,978
44,271
42,434
40,47
38,385
36,183
33,872
31,458
28,948
26,35
23,673
20,924
18,112
15,247
12,337
9,394
6,426
3,444
0,457
-2,523
-5,487
-8,427
-11,331
-14,192
-17,001
-19,75
-22,432
-25,038
-27,564
-30,003
-32,349
-34,597
-36,743
-38,784
-40,715
-42,536
-44,243
-45,835
-47,311
-48,671
-49,915
-51,042
-52,055
-52,954
-53,74
-54,417
-54,987
-55,452
-55,816
-56,084
-56,258
-56,343
-56,343
-56,263
-56,107
-55,88
-55,586
-55,23
-54,816
-54,349
-53,833
-53,272
-52,67
-52,031
-51,359
-50,658
-49,93
-49,178
-48,406
-47,617
-46,812
-45,994
-45,166
-44,33
-43,488
-42,641
-41,792
-40,942
-40,094
-39,248
-38,406
-37,571
-36,743
-35,924
-35,116
-34,32
-33,538
-32,771
-32,021
-31,289
-30,576
-29,884
-29,214
-28,567
-27,945
-27,349
-26,78
-26,238
-25,727
-25,245
-24,795
-24,377
-23,992
-23,641
-23,323
-23,041
-22,794
-22,581
-22,403
-22,26
-22,151
-22,074
-22,026
-22,006
-22,01
-22,035
-22,079
-22,137
-22,207
-22,285
-22,368
-22,455
-22,541
-22,623
-22,696
-22,756
-22,799
-22,822
-22,818
-22,783
-22,713
-22,602
-22,45
-22,253
-22,009
-21,712
-21,357
-20,939
-20,46
-19,924
-19,333
-18,695
-18,019
-17,318
-16,614
-15,927
-15,271
-14,661
-14,103
-13,609
-13,193
-12,868
-12,648
-12,533
-12,514
-12,578
-12,711
-12,887
-13,077
-13,239
-13,314
-13,257
-13,037
-12,627
-12,011
-11,168
-10,06
-8,667
-6,977
-4,995
-2,746
-0,265
2,414
5,233
8,121
10,994
13,75
16,305
18,603
20,589
22,219
23,439
24,155
24,281
23,757
22,537
20,612
18,003
14,708
10,758
6,23
1,189
-4,281
-10,086
-16,246
-22,811
-29,677
-36,704
-43,628
-49,931
-55,161
-58,936
-60,67
-59,881
-56,6
-50,931
-43,297
-35,06
-27,601
-21,953
-19,637
-20,708
-22,765
-25,336
-28,479
-31,995
-38,661
-45,177
-41,796
-21,24
23,307
91,207
171,397
256,839
344,477
431,035
515,958
590,194
636,4
643,86
607,208
530,179
427,891
312,695
196,488
93,222
10,405
-46,31
-76,495
-90,034
-95,807
-99,114
-101,649
-98,998
-88,57
-72,545
-54,79
-39,931
-30,392
-25,852
-25,188
-27,097
-30,521
-34,25
-36,897
-37,644
-36,278
-33,079
-28,66
-23,559
-18,196
-13,102
-8,82
-5,636
-3,611
-2,624
-2,413
-2,758
-3,496
-4,458
-5,484
-6,479
-7,368
-8,088
-8,595
-8,818
-8,7
-8,224
-7,385
-6,194
-4,692
-2,925
-0,96
1,103
3,185
5,236
7,224
9,153
11,034
12,858
14,61
16,277
17,847
19,323
20,713
22,021
23,26
24,457
25,648
26,893
28,24
29,708
31,301
33,001
34,778
36,613
38,492
40,397
42,318
44,245
46,169
48,093
50,019
51,94
53,844
55,705
57,503
59,23
60,882
62,465
63,992
65,47
66,905
68,306
69,678
71,021
72,332
73,602
74,819
75,977
77,069
78,092
79,044
79,921
80,717
81,426
82,041
82,554
82,958
83,245
83,407
83,44
83,338
83,098
82,721
82,204
81,546
80,746
79,804
78,718
77,488
76,115
74,598
72,937
71,134
69,192
67,113
64,901
62,561
60,096
57,512
54,815
52,01
49,104
46,103
43,015
39,846
36,604
33,297
29,935
26,524
23,074
19,595
16,095
12,584
9,07
5,563
2,072
-1,393
-4,826
-8,216
-11,555
-14,836
-18,049
-21,186
-24,241
-27,207
-30,075
-32,842
-35,5
-38,045
-40,473
-42,779
-44,96
-47,014
-48,939
-50,731
-52,39
-53,916
-55,308
-56,566
-57,692
-58,688
-59,555
-60,297
-60,917
-61,418
-61,806
-62,084
-62,258
-62,332
-62,313
-62,206
-62,016
-61,751
-61,415
-61,015
-60,558
-60,048
-59,493
-58,896
-58,264
-57,602
-56,914
-56,204
-55,476
-54,735
-53,983
-53,224
-52,462
-51,698
-50,936
-50,177
-49,423
-48,677
-47,939
-47,211
-46,493
-45,787
-45,092
-44,409
-43,737
-43,077
-42,43
-41,794
-41,169
-40,555
-39,952
-39,361
-38,78
-38,209
-37,65
-37,102
-36,567
-36,044
-35,537
-35,046
-34,573
-34,119
-33,686
-33,277
-32,892
-32,533
-32,203
-31,901
-31,63
-31,39
-31,18
-31,001
-30,853
-30,735
-30,648
-30,589
-30,559
-30,557
-30,584
-30,637
-30,717
-30,821
-30,945
-31,087
-31,243
-31,409
-31,581
-31,752
-31,918
-32,073
-32,214
-32,335
-32,431
-32,492
-32,509
-32,473
-32,383
-32,238
-32,041
-31,795
-31,508
-31,189
-30,859
-30,534
-30,225
-29,942
-29,683
-29,453
-29,262
-29,121
-29,046
-29,039
-29,09
-29,185
-29,309
-29,435
-29,533
-29,557
-29,443
-29,143
-28,624
-27,867
-26,868
-25,619
-24,103
-22,294
-20,179
-17,76
-15,058
-12,104
-8,934
-5,6
-2,17
1,259
4,574
7,679
10,506
13,008
15,152
16,898
18,185
18,937
19,076
18,544
17,302
15,333
12,647
9,265
5,218
0,574
-4,596
-10,24
-16,277
-22,704
-29,587
-36,851
-44,317
-51,642
-58,231
-63,539
-67,19
-68,691
-67,576
-63,825
-57,617
-49,713
-41,647
-34,719
-29,982
-28,588
-31,109
-37,127
-45,875
-55,467
-62,45
-63,59
-55,603
-34,688
0,45
47,962
106,119
171,888
243,371
323,905
413,249
504,765
587,664
643,592
655,861
620,307
540,228
426,092
296,226
164,136
42,941
-51,513
-113,982
-143,607
-146,259
-137,917
-127,744
-119,142
-111,423
-98,232
-78,538
-55,887
-33,849
-16,708
-5,868
-0,595
-0,884
-5,937
-14,263
-24,185
-33,708
-41,655
-47,811
-51,979
-53,68
-52,776
-49,582
-44,962
-40,196
-36,034
-32,658
-30,199
-28,8
-28,55
-29,455
-31,231
-33,311
-35,326
-37,108
-38,555
-39,659
-40,385
-40,66
-40,49
-39,951
-39,096
-37,965
-36,574
-34,902
-32,952
-30,752
-28,335
-25,75
-23,045
-20,26
-17,437
-14,607
-11,794
-9,017
-6,29
-3,621
-1,014
1,536
4,032
6,472
8,855
11,18
13,451
15,675
17,861
20,012
22,135
24,232
26,303
28,351
30,377
32,379
34,354
36,3
38,21
40,084
41,92
43,716
45,469
47,176
48,834
50,442
51,998
53,498
54,94
56,319
57,634
58,879
60,052
61,149
62,166
63,099
63,944
64,697
65,355
65,912
66,364
66,708
66,939
67,052
67,046
66,915
66,658
66,272
65,756
65,108
64,328
63,417
62,375
61,202
59,901
58,474
56,924
55,253
53,465
51,564
49,553
47,439
45,225
42,917
40,52
38,041
35,485
32,859
30,169
27,423
24,627
21,788
18,916
16,016
13,097
10,167
7,234
4,304
1,387
-1,512
-4,385
-7,225
-10,026
-12,783
-15,489
-18,14
-20,73
-23,254
-25,709
-28,091
-30,394
-32,617
-34,754
-36,803
-38,762
-40,626
-42,394
-44,062
-45,63
-47,094
-48,454
-49,709
-50,858
-51,9
-52,836
-53,666
-54,391
-55,013
-55,533
-55,952
-56,273
-56,497
-56,628
-56,667
-56,618
-56,483
-56,265
-55,967
-55,592
-55,144
-54,626
-54,041
-53,394
-52,69
-51,932
-51,125
-50,274
-49,384
-48,461
-47,508
-46,533
-45,54
-44,534
-43,521
-42,505
-41,49
-40,482
-39,486
-38,504
-37,542
-36,603
-35,691
-34,81
-33,964
-33,155
-32,388
-31,665
-30,989
-30,363
-29,789
-29,269
-28,805
-28,399
-28,053
-27,766
-27,54
-27,373
-27,267
-27,22
-27,231
-27,3
-27,425
-27,603
-27,834
-28,116
-28,446
-28,824
-29,247
-29,712
-30,219
-30,763
-31,341
-31,951
-32,588
-33,248
-33,927
-34,621
-35,327
-36,038
-36,753
-37,468
-38,18
-38,884
-39,578
-40,255
-40,913
-41,546
-42,153
-42,728
-43,267
-43,767
-44,225
-44,639
-45,007
-45,325
-45,588
-45,787
-45,92
-45,987
-45,989
-45,931
-45,819
-45,66
-45,468
-45,263
-45,061
-44,877
-44,718
-44,588
-44,496
-44,453
-44,472
-44,567
-44,738
-44,973
-45,259
-45,577
-45,902
-46,202
-46,427
-46,515
-46,419
-46,106
-45,557
-44,761
-43,693
-42,323
-40,624
-38,582
-36,203
-33,513
-30,537
-27,309
-23,881
-20,318
-16,721
-13,198
-9,83
-6,677
-3,784
-1,201
0,991
2,687
3,797
4,254
4,031
3,107
1,437
-1,015
-4,263
-8,305
-13,068
-18,501
-24,668
-31,556
-39,046
-46,902
-54,634
-61,7
-67,716
-72,24
-74,72
-74,917
-72,934
-69,223
-64,974
-61,49
-59,698
-60,63
-65,273
-73,781
-85,439
-98,798
-111,095
-118,973
-119,48
-109,296
-84,809
-44,867
8,693
73,571
145,758
222,693
307,117
398,487
490,398
573,187
629,625
643,002
608,716
527,697
407,467
266,452
120,116
-14,116
-114,7
-174,282
-193,062
-180,199
-156,682
-134,781
-119,442
-110,483
-100,5
-87,541
-73,926
-61,942
-55,345
-54,799
-58,169
-63,767
-69,522
-73,608
-75,482
-74,926
-72,009
-67,37
-61,692
-55,542
-49,592
-44,48
-40,496
-37,746
-36,191
-35,603
-35,794
-36,616
-37,878
-39,399
-41,041
-42,687
-44,238
-45,628
-46,771
-47,588
-48,034
-48,076
-47,711
-46,948
-45,806
-44,315
-42,511
-40,433
-38,118
-35,602
-32,92
-30,116
-27,235
-24,322
-21,422
-18,567
-15,779
-13,076
-10,463
-7,941
-5,506
-3,149
-0,858
1,374
3,554
5,686
7,773
9,82
11,834
13,821
15,786
17,733
19,665
21,585
23,493
25,389
27,271
29,136
30,981
32,803
34,601
36,371
38,112
39,822
41,497
43,134
44,73
46,282
47,783
49,231
50,617
51,939
53,19
54,364
55,456
56,46
57,372
58,184
58,894
59,494
59,98
60,348
60,593
60,71
60,696
60,546
60,259
59,83
59,258
58,542
57,681
56,674
55,524
54,23
52,794
51,221
49,513
47,674
45,709
43,623
41,422
39,113
36,703
34,198
31,608
28,94
26,201
23,401
20,548
17,65
14,716
11,753
8,771
5,777
2,779
-0,214
-3,194
-6,155
-9,088
-11,986
-14,843
-17,652
-20,408
-23,104
-25,735
-28,296
-30,784
-33,194
-35,522
-37,765
-39,921
-41,987
-43,961
-45,842
-47,627
-49,317
-50,911
-52,407
-53,806
-55,108
-56,313
-57,42
-58,431
-59,344
-60,162
-60,885
-61,513
-62,047
-62,49
-62,842
-63,106
-63,282
-63,372
-63,38
-63,307
-63,155
-62,927
-62,626
-62,255
-61,817
-61,315
-60,752
-60,133
-59,459
-58,735
-57,964
-57,15
-56,297
-55,407
-54,485
-53,535
-52,56
-51,566
-50,556
-49,534
-48,506
-47,476
-46,449
-45,429
-44,42
-43,427
-42,454
-41,505
-40,583
-39,692
-38,835
-38,015
-37,233
-36,493
-35,796
-35,143
-34,534
-33,972
-33,455
-32,985
-32,561
-32,183
-31,85
-31,563
-31,32
-31,121
-30,965
-30,849
-30,773
-30,733
-30,727
-30,752
-30,803
-30,876
-30,966
-31,069
-31,18
-31,294
-31,406
-31,513
-31,611
-31,698
-31,768
-31,819
-31,846
-31,845
-31,814
-31,748
-31,645
-31,502
-31,314
-31,08
-30,799
-30,47
-30,09
-29,654
-29,155
-28,591
-27,962
-27,274
-26,531
-25,739
-24,91
-24,057
-23,204
-22,372
-21,577
-20,829
-20,135
-19,509
-18,965
-18,521
-18,191
-17,976
-17,864
-17,843
-17,896
-18
-18,12
-18,202
-18,181
-18,006
-17,64
-17,057
-16,233
-15,125
-13,692
-11,899
-9,725
-7,18
-4,286
-1,068
2,438
6,179
10,078
14,019
17,884
21,582
25,036
28,181
30,932
33,154
34,718
35,511
35,456
34,534
32,721
29,971
26,265
21,594
15,991
9,584
2,438
-5,481
-14,087
-23,198
-32,438
-41,121
-48,651
-54,637
-58,605
-60,118
-59,103
-55,716
-50,736
-45,663
-41,721
-39,776
-40,656
-44,728
-51,578
-60,257
-68,537
-73,071
-71,053
-59,867
-36,811
-0,176
50,612
113,963
185,152
258,563
330,039
398,898
465,691
528,601
582,216
613,726
610,683
566,314
478,751
359,828
227,176
99,883
-0,171
-63,617
-90,667
-89,549
-78,138
-67,096
-60,627
-58,453
-53,783
-44,924
-34,036
-23,24
-16,395
-14,655
-16,436
-20,425
-24,91
-28,074
-29,266
-28,314
-25,174
-20,389
-14,62
-8,342
-2,166
3,225
7,494
10,509
12,243
12,906
12,685
11,693
10,112
8,127
5,874
3,499
1,124
-1,165
-3,254
-5,043
-6,471
-7,484
-8,065
-8,217
-7,947
-7,281
-6,255
-4,903
-3,26
-1,36
0,764
3,068
5,504
8,022
10,57
13,112
15,624
18,083
20,483
22,82
25,097
27,324
29,513
31,671
33,802
35,911
37,997
40,063
42,116
44,158
46,193
48,225
50,252
52,274
54,292
56,299
58,294
60,268
62,215
64,13
66,009
67,846
69,637
71,379
73,065
74,691
76,252
77,741
79,154
80,483
81,72
82,86
83,896
84,821
85,63
86,316
86,873
87,298
87,585
87,73
87,729
87,579
87,276
86,819
86,206
85,433
84,502
83,41
82,159
80,748
79,18
77,457
75,581
73,555
71,383
69,071
66,624
64,048
61,35
58,537
55,618
52,601
49,496
46,313
43,06
39,749
36,388
32,989
29,561
26,114
22,657
19,199
15,749
12,317
8,909
5,535
2,201
-1,084
-4,313
-7,481
-10,581
-13,607
-16,553
-19,415
-22,187
-24,867
-27,45
-29,933
-32,315
-34,592
-36,764
-38,83
-40,79
-42,642
-44,389
-46,03
-47,568
-49,002
-50,336
-51,57
-52,706
-53,747
-54,694
-55,548
-56,313
-56,988
-57,577
-58,08
-58,5
-58,837
-59,094
-59,273
-59,374
-59,4
-59,353
-59,235
-59,047
-58,792
-58,473
-58,09
-57,646
-57,145
-56,587
-55,977
-55,316
-54,607
-53,855
-53,061
-52,23
-51,365
-50,47
-49,548
-48,603
-47,64
-46,662
-45,675
-44,681
-43,687
-42,697
-41,716
-40,75
-39,803
-38,881
-37,989
-37,133
-36,316
-35,544
-34,821
-34,151
-33,538
-32,985
-32,495
-32,071
-31,715
-31,428
-31,21
-31,061
-30,98
-30,964
-31,009
-31,114
-31,272
-31,481
-31,735
-32,029
-32,359
-32,721
-33,109
-33,516
-33,938
-34,366
-34,791
-35,205
-35,6
-35,965
-36,293
-36,571
-36,793
-36,951
-37,039
-37,051
-36,978
-36,812
-36,546
-36,179
-35,711
-35,146
-34,492
-33,753
-32,942
-32,077
-31,178
-30,26
-29,339
-28,42
-27,507
-26,608
-25,733
-24,891
-24,087
-23,309
-22,541
-21,77
-20,982
-20,164
-19,3
-18,352
-17,29
-16,095
-14,753
-13,27
-11,658
-9,916
-8,04
-6,033
-3,909
-1,707
0,516
2,722
4,874
6,939
8,885
10,652
12,183
13,444
14,412
15,079
15,448
15,484
15,121
14,312
13,014
11,227
9,004
6,357
3,271
-0,258
-4,233
-8,617
-13,342
-18,412
-23,931
-29,911
-36,251
-42,725
-48,896
-54,354
-58,784
-61,731
-62,642
-61,282
-57,792
-52,571
-46,512
-40,671
-36,041
-34,001
-36,003
-41,363
-47,595
-52,782
-55,064
-55,995
-59,478
-63,632
-62,19
-45,56
-3,005
67,779
160,892
267,976
379,59
486,284
579,84
648,744
678,386
661,136
596,054
489,392
357,338
215,645
79,613
-33,479
-113,161
-155,411
-163,455
-151,247
-133,346
-117,978
-108,308
-100,86
-90,829
-78,577
-66,24
-56,384
-51,718
-51,903
-55,09
-59,889
-64,439
-67,218
-67,792
-66,044
-62,195
-56,942
-50,935
-44,677
-38,78
-33,809
-30,006
-27,448
-26,063
-25,613
-25,913
-26,817
-28,147
-29,732
-31,441
-33,149
-34,758
-36,195
-37,369
-38,204
-38,656
-38,692
-38,308
-37,517
-36,336
-34,794
-32,931
-30,787
-28,4
-25,808
-23,049
-20,168
-17,214
-14,233
-11,271
-8,362
-5,526
-2,78
-0,13
2,424
4,886
7,264
9,57
11,81
13,991
16,116
18,187
20,209
22,188
24,13
26,039
27,918
29,768
31,591
33,386
35,151
36,885
38,583
40,242
41,859
43,434
44,964
46,45
47,889
49,281
50,625
51,918
53,159
54,345
55,475
56,544
57,55
58,489
59,359
60,157
60,878
61,52
62,078
62,55
62,931
63,218
63,408
63,497
63,481
63,358
63,124
62,777
62,313
61,731
61,028
60,203
59,253
58,177
56,975
55,645
54,188
52,605
50,895
49,06
47,101
45,022
42,824
40,511
38,087
35,554
32,918
30,184
27,357
24,443
21,448
18,377
15,239
12,039
8,785
5,485
2,145
-1,225
-4,619
-8,027
-11,442
-14,855
-18,257
-21,639
-24,994
-28,313
-31,588
-34,81
-37,973
-41,069
-44,09
-47,03
-49,883
-52,642
-55,302
-57,858
-60,304
-62,636
-64,851
-66,945
-68,916
-70,761
-72,478
-74,065
-75,522
-76,847
-78,04
-79,1
-80,029
-80,828
-81,497
-82,04
-82,458
-82,756
-82,936
-83,002
-82,96
-82,813
-82,566
-82,225
-81,793
-81,278
-80,684
-80,016
-79,282
-78,486
-77,635
-76,734
-75,789
-74,806
-73,789
-72,744
-71,677
-70,592
-69,495
-68,391
-67,287
-66,188
-65,1
-64,028
-62,976
-61,951
-60,955
-59,993
-59,068
-58,181
-57,336
-56,533
-55,774
-55,059
-54,389
-53,765
-53,184
-52,649
-52,157
-51,709
-51,303
-50,935
-50,604
-50,304
-50,032
-49,783
-49,554
-49,338
-49,131
-48,925
-48,718
-48,502
-48,27
-48,013
-47,716
-47,369
-46,965
-46,501
-45,976
-45,392
-44,753
-44,072
-43,366
-42,654
-41,948
-41,258
-40,587
-39,936
-39,312
-38,725
-38,187
-37,708
-37,285
-36,911
-36,576
-36,26
-35,932
-35,544
-35,028
-34,318
-33,368
-32,148
-30,647
-28,861
-26,785
-24,424
-21,783
-18,872
-15,719
-12,347
-8,783
-5,074
-1,286
2,483
6,104
9,45
12,427
14,961
17,012
18,551
19,558
20,031
19,973
19,393
18,293
16,647
14,426
11,62
8,248
4,383
0,127
-4,443
-9,279
-14,366
-19,713
-25,305
-31,167
-37,424
-44,111
-51,14
-58,268
-64,965
-70,699
-75,124
-77,862
-78,479
-76,862
-73,192
-68,106
-63,002
-59,235
-57,671
-59,089
-64,075
-72,575
-83,891
-96,333
-106,709
-111,652
-108,497
-94,582
-67,446
-25,501
31,866
102,4
180,425
260,363
337,972
412,544
485,408
553,288
608,885
640,124
634,11
587,406
503,089
389,395
261,092
130,956
12,544
-77,951
-133,232
-153,321
-146,251
-128,686
-111,597
-99,219
-90,949
-81,517
-69,816
-58,056
-48,561
-44,168
-45,039
-49,312
-55,39
-61,349
-65,56
-67,451
-66,81
-63,774
-58,941
-52,922
-46,256
-39,577
-33,486
-28,275
-24,042
-20,733
-18,154
-16,161
-14,67
-13,573
-12,748
-12,116
-11,619
-11,228
-10,963
-10,807
-10,715
-10,66
-10,617
-10,573
-10,541
-10,531
-10,531
-10,529
-10,5
-10,4
-10,212
-9,921
-9,508
-8,962
-8,255
-7,364
-6,291
-5,035
-3,597
-1,978
-0,172
1,828
4,003
6,331
8,779
11,3
13,865
16,451
19,033
21,59
24,098
26,536
28,896
31,177
33,379
35,5
37,536
39,483
41,351
43,152
44,901
46,616
48,309
49,985
51,653
53,314
54,971
56,622
58,262
59,88
61,469
63,021
64,529
65,987
67,387
68,716
69,965
71,122
72,179
73,126
73,956
74,659
75,228
75,659
75,945
76,084
76,069
75,898
75,565
75,065
74,397
73,556
72,541
71,35
69,982
68,439
66,722
64,835
62,78
60,564
58,191
55,668
53,001
50,2
47,272
44,226
41,073
37,821
34,483
31,068
27,588
24,055
20,48
16,875
13,252
9,624
6,002
2,398
-1,176
-4,708
-8,187
-11,602
-14,943
-18,198
-21,359
-24,417
-27,362
-30,187
-32,885
-35,451
-37,88
-40,166
-42,306
-44,298
-46,139
-47,828
-49,363
-50,745
-51,975
-53,051
-53,977
-54,754
-55,384
-55,871
-56,219
-56,431
-56,513
-56,47
-56,308
-56,032
-55,65
-55,168
-54,594
-53,935
-53,199
-52,394
-51,528
-50,609
-49,644
-48,643
-47,613
-46,561
-45,494
-44,419
-43,343
-42,272
-41,212
-40,169
-39,148
-38,156
-37,197
-36,277
-35,4
-34,572
-33,795
-33,075
-32,414
-31,815
-31,279
-30,809
-30,403
-30,061
-29,783
-29,568
-29,412
-29,313
-29,267
-29,271
-29,322
-29,415
-29,545
-29,706
-29,89
-30,092
-30,304
-30,519
-30,729
-30,927
-31,105
-31,256
-31,377
-31,459
-31,494
-31,474
-31,385
-31,218
-30,968
-30,63
-30,203
-29,69
-29,095
-28,43
-27,713
-26,96
-26,185
-25,401
-24,613
-23,829
-23,061
-22,322
-21,631
-21,003
-20,444
-19,958
-19,542
-19,18
-18,849
-18,51
-18,108
-17,593
-16,921
-16,05
-14,964
-13,644
-12,073
-10,239
-8,116
-5,685
-2,943
0,113
3,467
7,078
10,895
14,843
18,813
22,703
26,409
29,824
32,88
35,507
37,639
39,208
40,113
40,248
39,527
37,872
35,237
31,606
26,95
21,261
14,575
6,93
-1,583
-10,887
-21,009
-31,887
-43,339
-55,054
-66,481
-77,053
-86,36
-93,932
-99,202
-101,874
-101,955
-99,891
-96,817
-93,881
-91,868
-91,563
-93,702
-98,496
-105,464
-113,152
-118,902
-119,887
-113,541
-97,284
-68,65
-25,522
31,694
99,66
174,339
250,881
328,188
409,369
492,183
570,355
632,14
659,561
643,593
584,954
490,011
371,868
243,014
113,392
-4,069
-94,757
-150,59
-170,716
-163,845
-146,943
-130,978
-119,964
-112,79
-103,88
-92,265
-80,377
-70,575
-65,637
-65,703
-68,958
-73,949
-78,904
-82,218
-83,335
-82,108
-78,738
-73,904
-68,258
-62,285
-56,56
-51,646
-47,784
-45,04
-43,334
-42,416
-42,107
-42,288
-42,81
-43,523
-44,305
-45,038
-45,631
-46,027
-46,147
-45,942
-45,4
-44,532
-43,394
-42,043
-40,528
-38,887
-37,149
-35,322
-33,4
-31,382
-29,276
-27,104
-24,9
-22,698
-20,533
-18,423
-16,37
-14,363
-12,364
-10,338
-8,257
-6,103
-3,872
-1,581
0,738
3,058
5,351
7,599
9,796
11,937
14,024
16,059
18,048
19,985
21,859
23,657
25,372
26,999
28,542
30,009
31,416
32,779
34,118
35,452
36,793
38,144
39,508
40,879
42,249
43,61
44,947
46,237
47,459
48,594
49,628
50,56
51,386
52,097
52,691
53,162
53,516
53,772
53,941
54,028
54,047
54,015
53,968
53,968
54,063
54,292
54,681
55,24
55,971
56,875
57,931
59,094
60,308
61,493
62,588
63,553
64,331
64,854
65,04
64,779
63,98
62,575
60,497
57,691
54,118
49,754
44,621
38,79
32,349
25,409
18,071
10,415
2,547
-5,412
-13,338
-21,103
-28,592
-35,713
-42,364
-48,432
-53,83
-58,492
-62,395
-65,573
-68,067
-69,937
-71,245
-72,052
-72,438
-72,502
-72,327
-71,982
-71,529
-71,012
-70,495
-70,058
-69,761
-69,647
-69,732
-70,009
-70,462
-71,077
-71,824
-72,666
-73,555
-74,435
-75,266
-76,03
-76,711
-77,302
-77,786
-78,138
-78,344
-78,401
-78,31
-78,078
-77,712
-77,214
-76,6
-75,893
-75,117
-74,3
-73,459
-72,601
-71,735
-70,863
-69,99
-69,123
-68,262
-67,406
-66,555
-65,713
-64,881
-64,064
-63,26
-62,466
-61,675
-60,883
-60,085
-59,277
-58,454
-57,613
-56,754
-55,875
-54,976
-54,056
-53,111
-52,136
-51,132
-50,102
-49,049
-47,983
-46,91
-45,844
-44,803
-43,804
-42,863
-41,991
-41,192
-40,47
-39,825
-39,26
-38,783
-38,389
-38,064
-37,788
-37,535
-37,275
-36,981
-36,62
-36,141
-35,504
-34,676
-33,633
-32,37
-30,89
-29,194
-27,281
-25,151
-22,816
-20,313
-17,691
-15,008
-12,318
-9,67
-7,116
-4,733
-2,586
-0,732
0,789
1,963
2,782
3,226
3,252
2,807
1,851
0,372
-1,603
-4,026
-6,866
-10,132
-13,817
-17,887
-22,298
-26,972
-31,917
-37,244
-42,945
-48,874
-54,719
-59,972
-64,222
-67,204
-68,523
-67,756
-64,836
-59,956
-53,829
-47,661
-42,485
-39,415
-39,689
-44,06
-51,542
-59,74
-65,678
-66,774
-64,44
-61,093
-56,551
-48,366
-27,588
15,725
86,077
184,185
301,112
420,747
525,395
595,203
617,657
590,651
520,71
421,297
303,08
174,38
42,855
-81,231
-180,305
-241,357
-260,24
-244,381
-212,908
-179,764
-151,612
-128,554
-104,148
-77,108
-50,081
-25,97
-9,479
-2,51
-3,653
-11,192
-22,264
-33,625
-43,673
-51,647
-56,835
-58,799
-57,532
-53,299
-47,079
-40,513
-34,553
-29,54
-25,734
-23,206
-21,973
-22,068
-23,178
-24,659
-26,105
-27,317
-28,169
-28,701
-28,9
-28,688
-28,083
-27,158
-25,967
-24,56
-22,957
-21,131
-19,082
-16,836
-14,419
-11,88
-9,261
-6,596
-3,919
-1,252
1,388
3,987
6,535
9,028
11,465
13,855
16,206
18,52
20,8
23,05
25,277
27,494
29,712
31,94
34,183
36,446
38,732
41,044
43,385
45,755
48,151
50,571
53,011
55,471
57,947
60,438
62,939
65,446
67,954
70,459
72,956
75,438
77,899
80,331
82,727
85,077
87,374
89,607
91,766
93,842
95,824
97,701
99,463
101,099
102,599
103,953
105,151
106,184
107,042
107,718
108,204
108,493
108,581
108,461
108,132
107,588
106,83
105,856
104,666
103,261
101,643
99,815
97,781
95,545
93,114
90,494
87,693
84,72
81,584
78,295
74,865
71,305
67,627
63,844
59,969
56,015
51,996
47,925
43,816
39,684
35,541
31,401
27,277
23,182
19,128
15,127
11,19
7,327
3,549
-0,136
-3,718
-7,19
-10,545
-13,775
-16,875
-19,84
-22,665
-25,347
-27,882
-30,269
-32,504
-34,589
-36,521
-38,3
-39,928
-41,406
-42,735
-43,918
-44,957
-45,855
-46,617
-47,245
-47,745
-48,121
-48,379
-48,523
-48,558
-48,492
-48,328
-48,072
-47,729
-47,305
-46,804
-46,232
-45,594
-44,892
-44,13
-43,313
-42,444
-41,527
-40,564
-39,56
-38,517
-37,44
-36,334
-35,201
-34,045
-32,866
-31,667
-30,451
-29,217
-27,967
-26,7
-25,415
-24,112
-22,793
-21,457
-20,101
-18,723
-17,317
-15,88
-14,416
-12,927
-11,418
-9,898
-8,376
-6,867
-5,393
-3,971
-2,614
-1,331
-0,126
0,993
2,017
2,935
3,741
4,432
5,018
5,51
5,92
6,277
6,618
6,989
7,447
8,034
8,771
9,675
10,753
12,009
13,452
15,079
16,88
18,841
20,95
23,184
25,515
27,89
30,227
32,447
34,458
36,193
37,619
38,706
39,44
39,813
39,82
39,462
38,755
37,689
36,224
34,336
32,002
29,237
26,118
22,699
19,016
15,091
10,909
6,439
1,709
-3,312
-8,738
-14,547
-20,633
-26,766
-32,434
-37,202
-40,88
-43,159
-43,653
-42,358
-39,447
-35,437
-31,552
-28,715
-27,157
-27,345
-30,002
-34,984
-41,631
-48,799
-52,805
-50,566
-41,842
-24,711
0,557
32,504
73,978
123,729
180,972
246,173
315,472
389,408
463,631
530,334
581,994
601,447
580
515,085
406,486
272,481
131,168
0,713
-95,609
-151,457
-168,738
-156,297
-134,279
-114,071
-99,825
-91,212
-81,139
-67,683
-53,157
-40,045
-32,248
-30,648
-33,343
-38,722
-44,743
-49,573
-52,614
-53,593
-52,489
-49,839
-46,224
-42,113
-38,122
-34,866
-32,618
-31,473
-31,383
-32,104
-33,446
-35,267
-37,381
-39,616
-41,832
-43,908
-45,755
-47,319
-48,547
-49,391
-49,822
-49,824
-49,4
-48,57
-47,365
-45,821
-43,973
-41,856
-39,505
-36,95
-34,232
-31,394
-28,48
-25,535
-22,592
-19,673
-16,801
-13,987
-11,239
-8,557
-5,937
-3,368
-0,846
1,631
4,065
6,456
8,805
11,118
13,398
15,648
17,87
20,068
22,241
24,39
26,516
28,615
30,684
32,72
34,72
36,683
38,605
40,487
42,325
44,119
45,866
47,564
49,21
50,802
52,336
53,808
55,214
56,551
57,815
59,002
60,109
61,131
62,065
62,906
63,65
64,292
64,828
65,252
65,559
65,745
65,805
65,734
65,528
65,182
64,693
64,058
63,274
62,339
61,252
60,01
58,614
57,065
55,362
53,507
51,503
49,353
47,061
44,63
42,066
39,374
36,56
33,63
30,591
27,449
24,213
20,89
17,489
14,02
10,491
6,912
3,294
-0,354
-4,019
-7,692
-11,362
-15,018
-18,65
-22,246
-25,796
-29,291
-32,72
-36,074
-39,344
-42,522
-45,599
-48,569
-51,426
-54,162
-56,774
-59,255
-61,603
-63,814
-65,885
-67,815
-69,601
-71,245
-72,745
-74,104
-75,322
-76,403
-77,349
-78,163
-78,851
-79,416
-79,865
-80,203
-80,435
-80,569
-80,61
-80,567
-80,445
-80,253
-79,998
-79,686
-79,325
-78,923
-78,486
-78,021
-77,533
-77,029
-76,515
-75,996
-75,477
-74,962
-74,454
-73,957
-73,472
-73,002
-72,546
-72,104
-71,674
-71,257
-70,849
-70,45
-70,056
-69,666
-69,277
-68,889
-68,496
-68,097
-67,688
-67,263
-66,82
-66,354
-65,862
-65,338
-64,777
-64,177
-63,535
-62,85
-62,117
-61,334
-60,494
-59,595
-58,641
-57,634
-56,579
-55,482
-54,353
-53,206
-52,062
-50,94
-49,854
-48,822
-47,851
-46,955
-46,151
-45,452
-44,865
-44,39
-44,019
-43,739
-43,543
-43,411
-43,313
-43,214
-43,063
-42,823
-42,464
-41,951
-41,246
-40,311
-39,104
-37,603
-35,806
-33,721
-31,367
-28,774
-25,965
-22,992
-19,931
-16,854
-13,852
-11
-8,37
-6,075
-4,248
-3,018
-2,503
-2,77
-3,858
-5,827
-8,717
-12,565
-17,403
-23,183
-29,875
-37,53
-46,073
-55,324
-64,965
-74,378
-82,944
-90,232
-95,701
-98,798
-99,42
-97,739
-94,45
-91,009
-88,674
-88,303
-90,846
-96,931
-106,236
-117,756
-129,385
-137,766
-139,707
-132,374
-112,862
-78,62
-29,531
31,813
101,826
175,433
250,18
328,446
409,467
487,673
553,918
592,206
588,805
541,363
451,789
328,187
188,361
46,947
-79,471
-171,208
-223,258
-237,161
-219,287
-185,62
-145,96
-106,974
-77,684
-61,735
-61,01
-73,964
-91,612
-106,158
-113,393
-112,95
-109,64
-106,814
-105,062
-103,775
-100,772
-95,358
-88,446
-80,895
-73,702
-67,523
-62,397
-58,341
-55,384
-53,337
-52,039
-51,381
-51,219
-51,449
-52,003
-52,785
-53,691
-54,633
-55,504
-56,188
-56,597
-56,669
-56,373
-55,704
-54,668
-53,284
-51,578
-49,587
-47,348
-44,896
-42,263
-39,483
-36,598
-33,657
-30,711
-27,806
-24,98
-22,254
-19,642
-17,148
-14,771
-12,503
-10,335
-8,25
-6,239
-4,293
-2,406
-0,572
1,215
2,964
4,684
6,382
8,065
9,735
11,397
13,052
14,7
16,339
17,968
19,582
21,182
22,764
24,328
25,872
27,396
28,897
30,373
31,821
33,238
34,622
35,966
37,267
38,52
39,72
40,862
41,94
42,949
43,883
44,738
45,507
46,185
46,767
47,249
47,624
47,889
48,039
48,072
47,983
47,77
47,43
46,962
46,364
45,637
44,778
43,79
42,674
41,431
40,063
38,573
36,964
35,241
33,407
31,467
29,426
27,29
25,064
22,756
20,371
17,917
15,401
12,829
10,211
7,552
4,862
2,148
-0,581
-3,318
-6,055
-8,783
-11,495
-14,183
-16,84
-19,458
-22,031
-24,553
-27,017
-29,418
-31,753
-34,015
-36,201
-38,307
-40,331
-42,268
-44,118
-45,877
-47,544
-49,118
-50,598
-51,983
-53,273
-54,468
-55,568
-56,574
-57,488
-58,31
-59,042
-59,687
-60,246
-60,723
-61,12
-61,442
-61,69
-61,87
-61,983
-62,035
-62,028
-61,965
-61,848
-61,681
-61,464
-61,201
-60,893
-60,541
-60,146
-59,708
-59,229
-58,707
-58,143
-57,537
-56,886
-56,19
-55,449
-54,66
-53,823
-52,935
-51,997
-51,005
-49,958
-48,855
-47,693
-46,471
-45,187
-43,838
-42,424
-40,943
-39,393
-37,776
-36,09
-34,338
-32,522
-30,644
-28,709
-26,72
-24,685
-22,608
-20,497
-18,357
-16,196
-14,022
-11,841
-9,662
-7,494
-5,346
-3,228
-1,15
0,877
2,844
4,741
6,563
8,304
9,957
11,514
12,965
14,3
15,508
16,579
17,502
18,269
18,875
19,326
19,635
19,821
19,899
19,886
19,793
19,634
19,427
19,189
18,944
18,714
18,516
18,374
18,311
18,344
18,471
18,653
18,823
18,906
18,84
18,581
18,078
17,259
16,052
14,398
12,247
9,583
6,351
2,404
-2,317
-7,742
-13,692
-19,788
-25,624
-30,885
-35,114
-37,701
-38,379
-37,252
-34,647
-31,41
-28,508
-26,798
-27,525
-32,013
-39,587
-47,94
-55,167
-59,3
-61,584
-65,366
-69,012
-66,985
-50,277
-9,144
58,608
148,044
250,578
357,194
460,446
552,425
624,1
663,015
657,153
602,743
501,675
364,741
212,202
64,002
-59,01
-140,463
-176,921
-174,674
-147,621
-112,246
-81,408
-59,789
-47,245
-42,273
-39,655
-37,573
-36,016
-33,639
-32,866
-34,534
-37,352
-40,789
-42,765
-41,977
-38,759
-33,474
-26,903
-19,883
-12,946
-6,68
-1,47
2,6
5,576
7,645
8,935
9,531
9,573
9,209
8,588
7,835
7,025
6,207
5,457
4,868
4,507
4,407
4,553
4,895
5,407
6,086
6,947
7,997
9,224
10,606
12,115
13,732
15,437
17,2
18,985
20,751
22,475
24,158
25,824
27,512
29,244
31,02
32,824
34,646
36,483
38,337
40,206
42,084
43,961
45,843
47,742
49,671
51,637
53,635
55,649
57,663
59,668
61,666
63,663
65,664
67,668
69,675
71,687
73,707
75,739
77,774
79,802
81,809
83,787
85,727
87,624
89,47
91,256
92,971
94,602
96,14
97,574
98,892
100,084
101,136
102,039
102,784
103,365
103,775
104,007
104,057
103,917
103,583
103,053
102,321
101,386
100,243
98,893
97,335
95,569
93,598
91,425
89,054
86,489
83,738
80,807
77,705
74,442
71,027
67,471
63,787
59,987
56,084
52,09
48,02
43,886
39,704
35,486
31,247
26,999
22,757
18,532
14,339
10,188
6,092
2,062
-1,891
-5,755
-9,522
-13,182
-16,725
-20,145
-23,433
-26,584
-29,592
-32,453
-35,163
-37,72
-40,122
-42,369
-44,461
-46,399
-48,185
-49,822
-51,314
-52,663
-53,876
-54,958
-55,914
-56,75
-57,473
-58,088
-58,602
-59,022
-59,355
-59,608
-59,786
-59,897
-59,947
-59,943
-59,891
-59,799
-59,67
-59,512
-59,33
-59,13
-58,916
-58,692
-58,463
-58,233
-58,005
-57,781
-57,563
-57,354
-57,153
-56,962
-56,78
-56,607
-56,44
-56,279
-56,12
-55,962
-55,802
-55,639
-55,468
-55,288
-55,097
-54,894
-54,675
-54,438
-54,18
-53,896
-53,584
-53,24
-52,861
-52,442
-51,978
-51,466
-50,905
-50,29
-49,618
-48,884
-48,078
-47,198
-46,244
-45,218
-44,127
-42,976
-41,776
-40,543
-39,3
-38,068
-36,863
-35,696
-34,574
-33,507
-32,509
-31,594
-30,777
-30,062
-29,444
-28,916
-28,468
-28,078
-27,71
-27,315
-26,831
-26,208
-25,416
-24,436
-23,256
-21,867
-20,259
-18,426
-16,374
-14,118
-11,675
-9,066
-6,321
-3,492
-0,657
2,08
4,612
6,856
8,757
10,277
11,389
12,068
12,308
12,104
11,468
10,407
8,889
6,888
4,391
1,42
-1,95
-5,629
-9,562
-13,723
-18,107
-22,737
-27,594
-32,705
-38,21
-44,142
-50,417
-56,802
-62,773
-67,796
-71,528
-73,57
-73,428
-70,973
-66,433
-60,426
-54,354
-49,65
-47,276
-48,259
-53,53
-63,122
-76,128
-90,835
-104,14
-112,369
-112,33
-100,54
-73,306
-29,639
28,216
97,578
174,151
255,517
344,85
441,557
538,715
625,43
683,14
695,014
657,133
572,214
449,897
309,187
165,382
34,575
-64,042
-124,241
-146,783
-140,564
-124,852
-110,635
-102,001
-98,254
-92,547
-83,473
-73,539
-65,095
-61,596
-63,514
-68,774
-75,792
-82,633
-87,46
-89,648
-88,943
-85,38
-79,591
-72,279
-64,032
-55,571
-47,658
-40,7
-34,905
-30,36
-26,933
-24,536
-23,14
-22,627
-22,856
-23,719
-25,108
-26,931
-29,121
-31,562
-34,11
-36,656
-39,096
-41,352
-43,362
-45,046
-46,337
-47,186
-47,548
-47,405
-46,75
-45,585
-43,926
-41,809
-39,276
-36,386
-33,205
-29,781
-26,163
-22,397
-18,527
-14,611
-10,696
-6,814
-3
0,725
4,342
7,831
11,182
14,4
17,484
20,441
23,281
26,004
28,616
31,124
33,539
35,874
38,142
40,346
42,49
44,575
46,603
48,574
50,487
52,335
54,112
55,814
57,439
58,985
60,45
61,827
63,114
64,304
65,392
66,376
67,253
68,018
68,668
69,202
69,617
69,913
70,089
70,143
70,074
69,881
69,561
69,114
68,54
67,838
67,009
66,054
64,973
63,769
62,443
60,998
59,437
57,762
55,976
54,082
52,086
49,99
47,8
45,522
43,159
40,72
38,209
35,634
33,002
30,319
27,593
24,832
22,042
19,232
16,408
13,579
10,752
7,933
5,129
2,346
-0,411
-3,135
-5,822
-8,466
-11,065
-13,613
-16,108
-18,545
-20,923
-23,239
-25,49
-27,674
-29,791
-31,839
-33,818
-35,727
-37,566
-39,334
-41,034
-42,665
-44,228
-45,725
-47,157
-48,526
-49,834
-51,082
-52,273
-53,409
-54,49
-55,518
-56,495
-57,421
-58,298
-59,125
-59,904
-60,635
-61,318
-61,955
-62,545
-63,089
-63,587
-64,04
-64,447
-64,81
-65,127
-65,4
-65,628
-65,812
-65,952
-66,049
-66,102
-66,113
-66,081
-66,008
-65,894
-65,739
-65,546
-65,314
-65,046
-64,745
-64,411
-64,048
-63,66
-63,249
-62,819
-62,375
-61,919
-61,454
-60,985
-60,514
-60,044
-59,577
-59,114
-58,659
-58,211
-57,774
-57,348
-56,935
-56,537
-56,155
-55,791
-55,446
-55,119
-54,809
-54,516
-54,239
-53,974
-53,719
-53,47
-53,222
-52,971
-52,714
-52,446
-52,16
-51,849
-51,501
-51,11
-50,672
-50,184
-49,646
-49,063
-48,44
-47,788
-47,126
-46,467
-45,827
-45,213
-44,63
-44,084
-43,581
-43,122
-42,712
-42,351
-42,024
-41,721
-41,424
-41,101
-40,723
-40,249
-39,622
-38,802
-37,757
-36,46
-34,909
-33,103
-31,044
-28,755
-26,262
-23,599
-20,816
-17,956
-15,065
-12,211
-9,458
-6,875
-4,557
-2,569
-0,962
0,221
0,977
1,307
1,214
0,737
-0,079
-1,191
-2,546
-4,122
-5,923
-7,92
-10,088
-12,384
-14,744
-17,165
-19,662
-22,255
-25,02
-27,99
-31,236
-34,949
-39,187
-43,868
-48,807
-53,519
-57,49
-60,439
-61,917
-61,363
-58,797
-54,525
-49,235
-44,471
-41,48
-40,974
-44,072
-51,645
-63,261
-77,781
-93,082
-105,543
-111,946
-109,543
-94,733
-64,164
-17,562
42,564
112,862
188,067
266,4
351,73
443,023
534,728
617,15
670,346
678,177
635,444
541,773
410,16
262,162
116,35
-5,949
-88,834
-130,401
-135,323
-117,761
-95,736
-78,006
-67,541
-61,63
-54,085
-44,196
-33,968
-25,725
-22,475
-24,222
-29,035
-35,373
-41,305
-45,321
-47,036
-46,36
-43,516
-39,167
-33,958
-28,417
-23,15
-18,705
-15,317
-13,065
-11,89
-11,579
-11,96
-12,894
-14,208
-15,744
-17,377
-18,992
-20,493
-21,804
-22,83
-23,494
-23,751
-23,57
-22,946
-21,887
-20,41
-18,544
-16,327
-13,801
-11,003
-7,972
-4,749
-1,381
2,08
5,581
9,07
12,51
15,871
19,135
22,29
25,333
28,263
31,087
33,817
36,457
39,012
41,483
43,872
46,183
48,421
50,591
52,7
54,753
56,754
58,71
60,626
62,505
64,346
66,152
67,92
69,651
71,345
73,002
74,623
76,212
77,772
79,314
80,847
82,37
83,885
85,384
86,856
88,291
89,678
90,997
92,237
93,39
94,453
95,437
96,352
97,203
97,989
98,701
99,325
99,861
100,308
100,67
100,964
101,206
101,416
101,636
101,895
102,212
102,595
103,014
103,429
103,808
104,12
104,344
104,465
104,449
104,274
103,917
103,345
102,529
101,428
99,971
98,095
95,754
92,913
89,589
85,832
81,677
77,179
72,392
67,367
62,18
56,892
51,548
46,197
40,881
35,653
30,603
25,813
21,356
17,302
13,677
10,473
7,688
5,297
3,259
1,531
0,042
-1,264
-2,418
-3,447
-4,37
-5,208
-6,008
-6,817
-7,674
-8,627
-9,701
-10,901
-12,24
-13,706
-15,274
-16,911
-18,567
-20,196
-21,776
-23,292
-24,736
-26,103
-27,378
-28,551
-29,613
-30,55
-31,351
-32,009
-32,516
-32,873
-33,088
-33,177
-33,164
-33,071
-32,91
-32,691
-32,421
-32,101
-31,735
-31,327
-30,874
-30,379
-29,846
-29,282
-28,694
-28,09
-27,474
-26,849
-26,217
-25,58
-24,941
-24,304
-23,672
-23,051
-22,445
-21,861
-21,305
-20,786
-20,307
-19,874
-19,49
-19,159
-18,884
-18,667
-18,511
-18,415
-18,384
-18,417
-18,516
-18,684
-18,921
-19,226
-19,599
-20,04
-20,545
-21,112
-21,736
-22,411
-23,132
-23,893
-24,688
-25,511
-26,354
-27,212
-28,08
-28,952
-29,821
-30,681
-31,524
-32,345
-33,136
-33,891
-34,603
-35,266
-35,873
-36,419
-36,903
-37,32
-37,667
-37,936
-38,122
-38,221
-38,235
-38,166
-38,018
-37,799
-37,518
-37,191
-36,84
-36,484
-36,139
-35,819
-35,532
-35,292
-35,115
-35,012
-34,992
-35,059
-35,2
-35,405
-35,658
-35,932
-36,2
-36,421
-36,545
-36,535
-36,368
-36,02
-35,48
-34,719
-33,713
-32,45
-30,926
-29,155
-27,169
-25,003
-22,698
-20,32
-17,934
-15,616
-13,459
-11,523
-9,855
-8,501
-7,504
-6,944
-6,92
-7,505
-8,755
-10,695
-13,307
-16,595
-20,56
-25,15
-30,336
-36,075
-42,274
-48,968
-56,243
-64,013
-72,145
-80,337
-87,966
-94,489
-99,494
-102,374
-102,669
-100,476
-95,931
-89,628
-83,213
-78,258
-75,992
-77,977
-84,019
-91,498
-99,728
-108,17
-115,941
-125,088
-131,388
-124,914
-99,079
-47,975
27,017
114,081
206,093
300,875
394,204
484,704
562,824
607,812
607,738
557,366
459,917
333,934
196,012
60,952
-53,553
-137,417
-185,76
-199,552
-191,514
-176,463
-163,371
-156,463
-152,759
-146,658
-137,858
-128,268
-120,408
-117,385
-119,177
-123,942
-130,342
-136,572
-141,052
-143,307
-143,102
-140,481
-136,023
-130,309
-123,821
-117,187
-110,998
-105,514
-100,809
-96,819
-93,339
-90,227
-87,385
-84,668
-81,91
-78,991
-75,905
-72,718
-69,505
-66,262
-62,743
