Nom
Date de naissance
Date d’enregistrement,2022-02-27 15:54:45 +0100
Classification,Rythme sinusal
Symptômes,
Version du logiciel,1.52
Appareil,"Watch5,1"
Fréquence d’échantillonnage,511,242 hertz


Dérivation,Dérivation DI
Unité,µV

-83,345
-89,319
-95,054
-100,487
-105,535
-110,139
-114,278
-117,954
-121,21
-124,1
-126,659
-128,922
-130,918
-132,661
-134,166
-135,441
-136,47
-137,256
-137,82
-138,195
-138,445
-138,625
-138,759
-138,863
-138,936
-138,954
-138,914
-138,804
-138,603
-138,315
-137,96
-137,577
-137,24
-137,002
-136,885
-136,904
-137,045
-137,283
-137,598
-137,948
-138,274
-138,542
-138,721
-138,794
-138,773
-138,635
-138,332
-137,8
-136,945
-135,692
-134
-131,826
-129,135
-125,932
-122,245
-118,147
-113,763
-109,184
-104,475
-99,684
-94,829
-89,949
-85,112
-80,381
-75,83
-71,528
-67,521
-63,876
-60,67
-57,93
-55,649
-53,768
-52,177
-50,801
-49,6
-48,542
-47,619
-46,815
-46,103
-45,482
-44,957
-44,523
-44,172
-43,869
-43,554
-43,205
-42,83
-42,461
-42,161
-41,957
-41,851
-41,85
-41,952
-42,152
-42,438
-42,76
-43,056
-43,288
-43,43
-43,488
-43,492
-43,447
-43,352
-43,215
-43,041
-42,869
-42,757
-42,734
-42,834
-43,096
-43,565
-44,327
-45,477
-47,081
-49,194
-51,855
-55,082
-58,907
-63,358
-68,42
-74,061
-80,213
-86,789
-93,733
-100,992
-108,496
-116,179
-123,941
-131,67
-139,28
-146,681
-153,765
-160,436
-166,585
-172,096
-176,913
-181,008
-184,376
-187,042
-189,007
-190,269
-190,848
-190,757
-190,027
-188,701
-186,805
-184,38
-181,517
-178,307
-174,866
-171,323
-167,759
-164,231
-160,785
-157,44
-154,225
-151,173
-148,297
-145,615
-143,153
-140,926
-138,97
-137,303
-135,89
-134,691
-133,641
-132,655
-131,682
-130,687
-129,635
-128,513
-127,31
-126,013
-124,624
-123,143
-121,556
-119,847
-117,985
-115,947
-113,744
-111,394
-108,93
-106,402
-103,841
-101,269
-98,715
-96,189
-93,698
-91,245
-88,823
-86,422
-84,044
-81,694
-79,384
-77,127
-74,922
-72,762
-70,636
-68,525
-66,414
-64,287
-62,127
-59,923
-57,667
-55,353
-52,98
-50,551
-48,062
-45,512
-42,897
-40,211
-37,449
-34,604
-31,669
-28,642
-25,524
-22,318
-19,028
-15,664
-12,237
-8,763
-5,265
-1,76
1,734
5,203
8,638
12,026
15,351
18,597
21,742
24,768
27,663
30,416
33,012
35,451
37,744
39,913
41,998
44,036
46,053
48,074
50,11
52,169
54,251
56,353
58,467
60,58
62,677
64,744
66,769
68,725
70,574
72,251
73,672
74,749
75,402
75,559
75,156
74,148
72,509
70,232
67,32
63,783
59,636
54,882
49,524
43,57
37,027
29,935
22,354
14,353
5,993
-2,675
-11,604
-20,759
-30,109
-39,627
-49,301
-59,14
-69,133
-79,233
-89,394
-99,51
-109,51
-119,419
-129,16
-138,546
-147,311
-155,025
-161,232
-165,575
-167,566
-166,651
-162,675
-155,792
-146,514
-135,805
-124,837
-114,972
-107,468
-103,343
-101,875
-100,494
-97,746
-92,447
-84,769
-76,956
-65,872
-45,41
-9,955
48,25
129,55
228,345
338,737
448,013
542,48
609,669
637,352
621,674
567,17
482,431
376,244
256,915
132,284
12,814
-85,133
-150,494
-181,721
-184,955
-174,704
-160,227
-141,284
-117,848
-90,354
-63,528
-48,051
-46,961
-55,341
-67,189
-73,719
-72,131
-66,69
-59,516
-52,677
-46,844
-39,666
-30,712
-20,839
-10,586
-1,07
6,888
13,245
17,927
20,854
22,219
22,2
20,911
18,527
15,228
11,135
6,413
1,275
-4,107
-9,537
-14,807
-19,765
-24,277
-28,232
-31,564
-34,221
-36,167
-37,393
-37,899
-37,688
-36,782
-35,201
-32,986
-30,217
-26,99
-23,425
-19,65
-15,758
-11,819
-7,892
-4,014
-0,218
3,467
7,028
10,451
13,706
16,756
19,543
22,022
24,176
26,006
27,53
28,778
29,768
30,506
30,998
31,241
31,229
30,961
30,438
29,671
28,697
27,58
26,402
25,25
24,212
23,362
22,769
22,499
22,615
23,184
24,272
25,952
28,301
31,375
35,208
39,815
45,184
51,274
58,023
65,348
73,142
81,299
89,709
98,253
106,812
115,245
123,401
131,115
138,221
144,584
150,089
154,641
158,165
160,615
161,965
162,22
161,407
159,551
156,686
152,866
148,161
142,685
136,575
129,985
123,073
115,979
108,841
101,792
94,949
88,399
82,219
76,454
71,149
66,368
62,157
58,549
55,547
53,118
51,207
49,749
48,667
47,885
47,317
46,863
46,448
46,022
45,545
44,992
44,333
43,514
42,497
41,262
39,798
38,12
36,245
34,193
32
29,71
27,377
25,068
22,827
20,682
18,653
16,753
14,999
13,419
12,027
10,828
9,825
9,018
8,404
7,987
7,757
7,699
7,79
8,006
8,332
8,76
9,283
9,897
10,596
11,373
12,225
13,152
14,152
15,219
16,348
17,533
18,771
20,062
21,407
22,804
24,255
25,754
27,298
28,883
30,501
32,146
33,812
35,493
37,193
38,908
40,636
42,371
44,107
45,834
47,537
49,199
50,792
52,296
53,696
54,986
56,167
57,244
58,219
59,095
59,875
60,56
61,158
61,68
62,13
62,527
62,899
63,289
63,766
64,385
65,181
66,173
67,363
68,739
70,291
71,995
73,814
75,712
77,653
79,596
81,516
83,368
85,087
86,586
87,745
88,452
88,632
88,226
87,195
85,523
83,197
80,229
76,671
72,579
68,012
63,034
57,7
52,082
46,284
40,437
34,695
29,216
24,131
19,558
15,61
12,388
9,992
8,489
7,897
8,213
9,422
11,494
14,391
18,057
22,399
27,297
32,626
38,242
44,005
49,77
55,37
60,631
65,37
69,427
72,676
75,022
76,392
76,732
76,016
74,238
71,419
67,593
62,79
57,054
50,452
43,072
35,033
26,473
17,533
8,333
-1,013
-10,405
-19,753
-28,962
-37,985
-46,79
-55,343
-63,599
-71,478
-78,88
-85,814
-92,359
-98,493
-104,147
-109,119
-113,012
-115,532
-116,44
-115,288
-111,675
-105,587
-97,087
-86,682
-75,62
-64,985
-55,961
-50,238
-47,639
-45,918
-43,627
-38,465
-31,176
-27,581
-28,265
-30,571
-26,87
-1,005
55,311
142,941
257,226
381,078
498,165
593,745
652,01
667,227
639,069
572,344
478,409
364,779
239,146
110,9
-9,144
-104,524
-164,415
-187,633
-182,573
-166,379
-150,811
-140,155
-132,953
-123,255
-109,961
-95,461
-82,29
-73,596
-69,652
-68,642
-69,22
-69,664
-68,379
-64,885
-59,081
-51,193
-41,974
-32,151
-22,286
-13,079
-5,261
0,766
4,813
6,878
7,181
5,911
3,217
-0,681
-5,539
-11,122
-17,186
-23,508
-29,909
-36,2
-42,209
-47,781
-52,762
-57,036
-60,517
-63,146
-64,885
-65,692
-65,543
-64,437
-62,401
-59,504
-55,848
-51,544
-46,719
-41,502
-36,015
-30,389
-24,756
-19,217
-13,872
-8,814
-4,132
0,046
3,605
6,449
8,492
9,698
10,06
9,582
8,297
6,267
3,567
0,298
-3,432
-7,545
-11,947
-16,534
-21,184
-25,726
-30,003
-33,871
-37,187
-39,846
-41,759
-42,846
-43,068
-42,426
-40,935
-38,64
-35,586
-31,789
-27,289
-22,153
-16,474
-10,391
-4,035
2,478
9,013
15,45
21,665
27,543
33,007
38,018
42,545
46,565
50,047
52,937
55,203
56,847
57,892
58,392
58,394
57,943
57,106
55,964
54,611
53,127
51,563
49,943
48,289
46,631
45,006
43,47
42,052
40,767
39,617
38,596
37,7
36,921
36,233
35,591
34,941
34,242
33,475
32,633
31,711
30,697
29,577
28,334
26,967
25,477
23,866
22,137
20,288
18,327
16,269
14,138
11,962
9,76
7,544
5,321
3,098
0,884
-1,313
-3,487
-5,636
-7,757
-9,848
-11,902
-13,916
-15,888
-17,818
-19,711
-21,571
-23,4
-25,197
-26,961
-28,688
-30,377
-32,027
-33,636
-35,207
-36,741
-38,235
-39,691
-41,108
-42,48
-43,8
-45,054
-46,219
-47,28
-48,229
-49,062
-49,784
-50,399
-50,91
-51,327
-51,657
-51,91
-52,097
-52,225
-52,293
-52,321
-52,332
-52,367
-52,481
-52,718
-53,105
-53,667
-54,412
-55,339
-56,442
-57,696
-59,061
-60,501
-61,983
-63,484
-64,984
-66,441
-67,797
-68,977
-69,889
-70,458
-70,62
-70,308
-69,471
-68,08
-66,121
-63,612
-60,6
-57,131
-53,248
-48,996
-44,428
-39,618
-34,668
-29,696
-24,823
-20,163
-15,833
-11,959
-8,659
-6,034
-4,159
-3,079
-2,818
-3,383
-4,769
-6,958
-9,899
-13,524
-17,738
-22,423
-27,47
-32,771
-38,2
-43,625
-48,919
-53,946
-58,596
-62,777
-66,391
-69,368
-71,661
-73,242
-74,125
-74,339
-73,922
-72,931
-71,421
-69,436
-67,038
-64,279
-61,202
-57,87
-54,342
-50,675
-46,954
-43,25
-39,609
-36,068
-32,637
-29,32
-26,132
-23,084
-20,182
-17,451
-14,924
-12,65
-10,71
-9,17
-8,076
-7,462
-7,327
-7,663
-8,481
-9,786
-11,586
-13,887
-16,677
-19,938
-23,662
-27,823
-32,369
-37,246
-42,371
-47,654
-53,04
-58,469
-63,88
-69,257
-74,576
-79,758
-84,753
-89,551
-94,131
-98,554
-102,949
-107,297
-111,517
-115,667
-119,598
-122,767
-124,75
-125,091
-122,947
-119,099
-114,488
-108,13
-100,969
-92,123
-80,148
-69,156
-60,85
-58,168
-65,823
-82,443
-107,626
-137,214
-160,623
-167,178
-144,984
-89,873
-9,145
85,297
179,684
267,614
352,889
437,399
518,171
585,202
620,982
614,957
566,819
482,546
373,77
251,913
126,441
9,385
-85,036
-147,79
-176,723
-179,03
-169,935
-160,001
-153,932
-151,189
-146,637
-139,477
-131,885
-126,05
-124,916
-128,755
-135,763
-144,577
-153,432
-160,617
-165,521
-167,893
-167,776
-165,768
-162,496
-158,466
-154,323
-150,737
-148,042
-146,379
-145,736
-145,905
-146,719
-148,056
-149,739
-151,582
-153,436
-155,174
-156,686
-157,9
-158,718
-159,03
-158,757
-157,85
-156,286
-154,074
-151,231
-147,783
-143,771
-139,246
-134,262
-128,87
-123,127
-117,084
-110,806
-104,364
-97,825
-91,251
-84,692
-78,186
-71,758
-65,425
-59,193
-53,057
-47,005
-41,026
-35,112
-29,27
-23,507
-17,831
-12,243
-6,748
-1,356
3,912
9,029
13,976
18,733
23,278
27,575
31,57
35,213
38,463
41,29
43,681
45,625
47,113
48,145
48,744
48,954
48,838
48,467
47,899
47,187
46,396
45,61
44,932
44,45
44,238
44,356
44,855
45,793
47,213
49,137
51,545
54,384
57,576
61,033
64,676
68,423
72,177
75,818
79,225
82,296
84,942
87,087
88,649
89,538
89,685
89,051
87,639
85,484
82,641
79,177
75,163
70,674
65,798
60,629
55,256
49,75
44,179
38,61
33,114
27,769
22,634
17,743
13,111
8,734
4,596
0,661
-3,099
-6,713
-10,199
-13,563
-16,806
-19,926
-22,923
-25,803
-28,567
-31,214
-33,739
-36,128
-38,358
-40,408
-42,237
-43,789
-45,026
-45,925
-46,485
-46,737
-46,704
-46,4
-45,843
-45,047
-44,03
-42,819
-41,432
-39,884
-38,197
-36,395
-34,517
-32,619
-30,738
-28,892
-27,083
-25,29
-23,501
-21,717
-19,933
-18,147
-16,355
-14,556
-12,753
-10,965
-9,2
-7,463
-5,75
-4,046
-2,349
-0,664
0,997
2,612
4,168
5,657
7,07
8,395
9,628
10,763
11,804
12,76
13,638
14,44
15,165
15,813
16,383
16,882
17,317
17,695
18,024
18,312
18,568
18,804
19,029
19,249
19,466
19,68
19,895
20,119
20,362
20,631
20,929
21,26
21,627
22,035
22,481
22,956
23,442
23,92
24,379
24,815
25,231
25,629
26,009
26,371
26,718
27,063
27,418
27,791
28,182
28,596
29,051
29,581
30,238
31,069
32,104
33,36
34,845
36,562
38,508
40,663
42,99
45,436
47,952
50,497
53,047
55,568
58,002
60,268
62,267
63,899
65,094
65,795
65,945
65,502
64,446
62,782
60,552
57,818
54,63
51,026
47,038
42,707
38,109
33,35
28,551
23,843
19,332
15,115
11,305
7,993
5,252
3,128
1,634
0,769
0,556
1,032
2,23
4,174
6,846
10,187
14,127
18,571
23,435
28,632
34,052
39,597
45,178
50,719
56,16
61,441
66,464
71,103
75,239
78,756
81,581
83,687
85,056
85,7
85,632
84,879
83,484
81,493
78,94
75,841
72,197
68,018
63,354
58,3
52,973
47,484
41,89
36,21
30,454
24,613
18,698
12,683
6,458
-0,008
-6,618
-13,13
-19,08
-23,979
-27,5
-29,309
-28,968
-26,325
-21,554
-15,162
-8,36
-2,494
1,491
2,625
-0,034
-6,651
-16,537
-28,341
-39,391
-46,306
-46,114
-35,607
-11,25
28,12
80,732
144,506
215,741
291,921
375,612
466,261
557,436
639,354
695,384
709,8
678,231
602,729
490,799
357,035
214,428
76,118
-40,138
-120,932
-160,092
-157,675
-124,699
-78,081
-31,896
1,231
14,623
10,467
-5,796
-24,655
-37,842
-43,447
-42,966
-41,283
-41,964
-44,677
-47,923
-49,393
-48,026
-44,518
-39,703
-34,361
-29,091
-24,217
-19,939
-16,398
-13,555
-11,247
-9,381
-7,904
-6,759
-5,886
-5,221
-4,713
-4,348
-4,141
-4,091
-4,166
-4,323
-4,536
-4,805
-5,134
-5,533
-6,004
-6,541
-7,138
-7,786
-8,455
-9,109
-9,714
-10,24
-10,66
-10,949
-11,087
-11,064
-10,87
-10,498
-9,94
-9,189
-8,239
-7,09
-5,752
-4,236
-2,569
-0,79
1,069
2,982
4,925
6,877
8,82
10,738
12,625
14,486
16,327
18,156
19,977
21,79
23,597
25,403
27,217
29,051
30,909
32,788
34,686
36,607
38,56
40,558
42,603
44,685
46,786
48,889
50,981
53,063
55,14
57,208
59,264
61,314
63,37
65,462
67,611
69,815
72,051
74,287
76,497
78,67
80,803
82,887
84,903
86,818
88,591
90,196
91,61
92,798
93,704
94,253
94,374
94,035
93,239
92
90,33
88,232
85,704
82,771
79,478
75,886
72,068
68,075
63,951
59,762
55,602
51,591
47,85
44,456
41,454
38,877
36,771
35,183
34,15
33,669
33,701
34,189
35,07
36,302
37,843
39,619
41,524
43,42
45,179
46,704
47,92
48,751
49,095
48,856
47,963
46,386
44,134
41,23
37,689
33,512
28,718
23,363
17,542
11,375
4,967
-1,594
-8,224
-14,823
-21,259
-27,407
-33,179
-38,519
-43,395
-47,773
-51,605
-54,831
-57,425
-59,394
-60,776
-61,628
-61,99
-61,901
-61,413
-60,601
-59,565
-58,395
-57,148
-55,862
-54,567
-53,306
-52,136
-51,121
-50,296
-49,676
-49,267
-49,063
-49,072
-49,293
-49,71
-50,29
-50,987
-51,767
-52,617
-53,534
-54,516
-55,552
-56,623
-57,712
-58,817
-59,937
-61,075
-62,23
-63,4
-64,587
-65,804
-67,07
-68,407
-69,829
-71,341
-72,944
-74,639
-76,425
-78,304
-80,27
-82,317
-84,436
-86,62
-88,867
-91,171
-93,525
-95,919
-98,341
-100,779
-103,224
-105,665
-108,094
-110,504
-112,888
-115,24
-117,556
-119,834
-122,07
-124,259
-126,396
-128,475
-130,489
-132,434
-134,303
-136,089
-137,788
-139,395
-140,905
-142,315
-143,623
-144,825
-145,916
-146,894
-147,754
-148,492
-149,105
-149,586
-149,934
-150,145
-150,215
-150,146
-149,937
-149,587
-149,095
-148,457
-147,671
-146,742
-145,672
-144,468
-143,139
-141,697
-140,156
-138,541
-136,873
-135,17
-133,452
-131,731
-130,018
-128,323
-126,655
-125,023
-123,431
-121,871
-120,334
-118,804
-117,259
-115,677
-114,026
-112,264
-110,353
-108,266
-105,981
-103,487
-100,783
-97,88
-94,791
-91,538
-88,153
-84,674
-81,155
-77,659
-74,251
-70,997
-67,968
-65,243
-62,89
-60,962
-59,496
-58,514
-58,018
-57,99
-58,406
-59,229
-60,42
-61,957
-63,801
-65,9
-68,197
-70,617
-73,092
-75,572
-78,032
-80,465
-82,868
-85,235
-87,609
-90,137
-92,91
-95,909
-98,957
-101,63
-103,531
-104,413
-103,961
-101,74
-97,551
-91,554
-84,409
-77,557
-72,346
-69,656
-70,638
-76,289
-86,818
-101,877
-118,765
-133,389
-143,38
-145,77
-139,798
-124,931
-96,159
-52,584
7,354
84,689
172,965
270,745
373,603
470,201
551,087
601,045
608,621
573,841
501,898
402,797
285,351
157,12
27,095
-91,256
-179,184
-226,21
-232,274
-207,933
-173,734
-143,325
-121,596
-107,984
-96,266
-84,027
-72,971
-65,093
-62,822
-66,001
-72,321
-79,445
-85,138
-88,3
-88,82
-86,853
-82,904
-77,627
-71,654
-65,74
-60,599
-56,565
-53,725
-52,011
-51,205
-51,129
-51,639
-52,542
-53,644
-54,802
-55,901
-56,854
-57,604
-58,069
-58,18
-57,891
-57,176
-56,034
-54,483
-52,546
-50,257
-47,657
-44,787
-41,687
-38,401
-34,97
-31,444
-27,874
-24,31
-20,8
-17,378
-14,071
-10,895
-7,858
-4,959
-2,195
0,448
2,981
5,414
7,756
10,017
12,204
14,329
16,406
18,448
20,468
22,479
24,492
26,52
28,573
30,66
32,791
34,973
37,214
39,525
41,916
44,396
46,975
49,664
52,47
55,4
58,463
61,662
65,001
68,483
72,108
75,875
79,783
83,829
88,008
92,313
96,739
101,276
105,914
110,642
115,448
120,317
125,235
130,186
135,153
140,119
145,065
149,973
154,823
159,595
164,27
168,828
173,247
177,508
181,591
185,477
189,147
192,582
195,765
198,68
201,311
203,645
205,668
207,369
208,737
209,764
210,442
210,766
210,732
210,336
209,579
208,461
206,985
205,155
202,976
200,456
197,605
194,431
190,948
187,168
183,107
178,778
174,2
169,39
164,366
159,147
153,754
148,206
142,524
136,729
130,843
124,885
118,878
112,841
106,796
100,763
94,76
88,808
82,924
77,125
71,429
65,849
60,401
55,097
49,95
44,97
40,166
35,546
31,118
26,885
22,853
19,025
15,4
11,981
8,765
5,751
2,936
0,317
-2,112
-4,355
-6,419
-8,309
-10,033
-11,598
-13,013
-14,284
-15,422
-16,433
-17,327
-18,113
-18,798
-19,39
-19,898
-20,33
-20,693
-20,995
-21,241
-21,439
-21,593
-21,711
-21,795
-21,851
-21,883
-21,893
-21,883
-21,858
-21,817
-21,764
-21,699
-21,623
-21,538
-21,444
-21,342
-21,233
-21,117
-20,995
-20,868
-20,738
-20,606
-20,472
-20,341
-20,213
-20,092
-19,982
-19,885
-19,805
-19,746
-19,712
-19,707
-19,738
-19,807
-19,92
-20,083
-20,301
-20,58
-20,925
-21,342
-21,836
-22,412
-23,076
-23,833
-24,686
-25,641
-26,701
-27,868
-29,148
-30,542
-32,052
-33,678
-35,422
-37,283
-39,258
-41,344
-43,538
-45,832
-48,222
-50,7
-53,259
-55,89
-58,584
-61,332
-64,126
-66,956
-69,811
-72,68
-75,551
-78,409
-81,244
-84,042
-86,79
-89,472
-92,076
-94,588
-96,998
-99,295
-101,467
-103,499
-105,375
-107,084
-108,618
-109,972
-111,143
-112,132
-112,941
-113,583
-114,076
-114,44
-114,689
-114,834
-114,881
-114,84
-114,727
-114,554
-114,331
-114,058
-113,727
-113,325
-112,839
-112,248
-111,515
-110,593
-109,419
-107,943
-106,127
-103,944
-101,373
-98,389
-94,965
-91,091
-86,773
-82,038
-76,926
-71,487
-65,775
-59,865
-53,858
-47,871
-42,03
-36,442
-31,199
-26,381
-22,066
-18,344
-15,304
-13,029
-11,579
-10,989
-11,262
-12,367
-14,264
-16,908
-20,22
-24,097
-28,432
-33,098
-38,038
-43,296
-48,811
-54,386
-59,701
-64,261
-67,615
-69,445
-69,293
-66,64
-61,37
-53,716
-44,405
-34,681
-25,743
-18,866
-15,552
-16,939
-22,115
-28,429
-32,835
-32,789
-30,299
-29,052
-29,174
-26,99
-11,26
30,56
104,295
208,867
332,719
459,36
572,22
655,385
697,574
690,854
633,453
529,819
391,051
236,406
86,331
-37,704
-120,715
-161,575
-167,465
-154,879
-140,74
-131,939
-128,882
-125,951
-116,617
-100,711
-81,777
-64,318
-51,949
-44,843
-41,682
-41,499
-43,401
-46,998
-51,357
-54,963
-57,159
-57,962
-57,576
-56,343
-54,274
-51,042
-47,014
-43,073
-39,696
-37,125
-35,378
-34,203
-33,604
-33,836
-34,833
-36,283
-37,974
-39,679
-41,297
-42,909
-44,505
-45,987
-47,326
-48,509
-49,519
-50,387
-51,124
-51,698
-52,111
-52,359
-52,432
-52,343
-52,088
-51,673
-51,111
-50,409
-49,567
-48,598
-47,519
-46,359
-45,168
-43,971
-42,782
-41,61
-40,454
-39,321
-38,222
-37,156
-36,122
-35,115
-34,131
-33,171
-32,237
-31,324
-30,417
-29,493
-28,523
-27,488
-26,381
-25,194
-23,929
-22,587
-21,172
-19,703
-18,2
-16,681
-15,158
-13,634
-12,108
-10,582
-9,062
-7,556
-6,067
-4,585
-3,096
-1,589
-0,053
1,526
3,168
4,914
6,8
8,849
11,077
13,477
16,032
18,725
21,533
24,419
27,338
30,219
32,987
35,581
37,942
40,013
41,73
43,008
43,769
43,958
43,531
42,471
40,773
38,435
35,468
31,911
27,815
23,257
18,328
13,095
7,624
1,978
-3,777
-9,556
-15,281
-20,894
-26,35
-31,612
-36,656
-41,453
-45,986
-50,261
-54,296
-58,119
-61,773
-65,278
-68,65
-71,904
-75,052
-78,112
-81,1
-84,019
-86,863
-89,628
-92,31
-94,904
-97,408
-99,803
-102,07
-104,187
-106,128
-107,878
-109,427
-110,766
-111,891
-112,8
-113,492
-113,972
-114,251
-114,337
-114,235
-113,953
-113,497
-112,876
-112,102
-111,185
-110,136
-108,965
-107,682
-106,294
-104,81
-103,237
-101,582
-99,85
-98,045
-96,175
-94,244
-92,261
-90,231
-88,161
-86,057
-83,925
-81,772
-79,603
-77,421
-75,231
-73,036
-70,839
-68,642
-66,447
-64,256
-62,07
-59,891
-57,718
-55,552
-53,395
-51,246
-49,106
-46,976
-44,856
-42,746
-40,648
-38,562
-36,49
-34,431
-32,386
-30,357
-28,343
-26,345
-24,363
-22,396
-20,444
-18,506
-16,583
-14,671
-12,772
-10,882
-9,001
-7,128
-5,261
-3,399
-1,54
0,318
2,176
4,035
5,899
7,769
9,647
11,537
13,44
15,36
17,301
19,264
21,255
23,276
25,33
27,422
29,554
31,729
33,95
36,22
38,54
40,912
43,335
45,811
48,337
50,914
53,537
56,203
58,909
61,65
64,419
67,211
70,019
72,839
75,661
78,48
81,288
84,077
86,839
89,566
92,246
94,869
97,424
99,904
102,299
104,603
106,809
108,908
110,893
112,752
114,481
116,069
117,508
118,791
119,912
120,874
121,693
122,384
122,966
123,456
123,865
124,209
124,505
124,768
125,022
125,286
125,575
125,908
126,307
126,789
127,365
128,015
128,675
129,277
129,755
130,049
130,133
129,953
129,441
128,556
127,252
125,485
123,248
120,446
116,917
112,665
107,763
102,406
97,052
92,12
87,95
85,12
84,19
85,208
88,12
92,525
97,224
101,114
103,209
102,074
97,735
92,232
86,999
83,062
79,487
73,304
65,223
61,782
73,717
109,879
172,791
256,335
348,415
442,553
535,714
623,813
702,681
759,164
776,717
748,952
675,384
563,798
432,466
296,546
172,355
78,315
20,369
-1,961
2,505
15,237
26,267
32,174
34,015
38,877
47,967
58,512
68,183
73,52
73,918
71,307
67,126
63,041
60,802
61,063
63,999
69,563
77,084
85,789
95,075
104,228
112,493
119,438
124,819
128,532
130,713
131,485
130,936
129,222
126,5
122,914
118,612
113,738
108,417
102,81
97,086
91,405
85,922
80,761
76,026
71,796
68,118
65,022
62,517
60,595
59,241
58,423
58,088
58,178
58,628
59,365
60,317
61,407
62,556
63,704
64,805
65,828
66,757
67,586
68,311
68,939
69,481
69,954
70,375
70,764
71,137
71,517
71,931
72,406
72,967
73,633
74,412
75,305
76,309
77,416
78,608
79,867
81,169
82,499
83,849
85,215
86,59
87,968
89,335
90,685
92,023
93,355
94,687
96,027
97,383
98,769
100,219
101,761
103,412
105,183
107,059
109,015
111,031
113,084
115,142
117,165
119,097
120,874
122,452
123,786
124,831
125,533
125,809
125,578
124,784
123,375
121,333
118,657
115,344
111,4
106,854
101,746
96,128
90,063
83,59
76,735
69,541
62,06
54,379
46,593
38,785
31,035
23,406
15,942
8,686
1,673
-5,085
-11,584
-17,824
-23,811
-29,526
-34,932
-40,01
-44,751
-49,172
-53,31
-57,204
-60,899
-64,435
-67,841
-71,145
-74,364
-77,502
-80,561
-83,543
-86,449
-89,299
-92,129
-94,968
-97,839
-100,751
-103,696
-106,659
-109,614
-112,538
-115,407
-118,205
-120,922
-123,554
-126,102
-128,57
-130,962
-133,276
-135,499
-137,623
-139,634
-141,523
-143,29
-144,944
-146,499
-147,975
-149,393
-150,776
-152,143
-153,513
-154,895
-156,293
-157,7
-159,104
-160,494
-161,856
-163,187
-164,487
-165,753
-166,98
-168,157
-169,27
-170,296
-171,205
-171,963
-172,533
-172,889
-173,02
-172,934
-172,656
-172,222
-171,676
-171,052
-170,374
-169,661
-168,933
-168,207
-167,506
-166,86
-166,306
-165,89
-165,671
-165,693
-165,982
-166,543
-167,354
-168,379
-169,563
-170,86
-172,234
-173,653
-175,096
-176,544
-177,979
-179,384
-180,734
-181,999
-183,131
-184,095
-184,863
-185,424
-185,783
-185,961
-185,993
-185,914
-185,756
-185,544
-185,289
-184,999
-184,674
-184,315
-183,911
-183,458
-182,949
-182,377
-181,742
-181,044
-180,285
-179,462
-178,566
-177,589
-176,522
-175,365
-174,127
-172,823
-171,469
-170,089
-168,72
-167,416
-166,255
-165,314
-164,649
-164,296
-164,27
-164,578
-165,217
-166,177
-167,435
-168,951
-170,675
-172,558
-174,549
-176,593
-178,615
-180,502
-182,105
-183,262
-183,838
-183,733
-182,875
-181,208
-178,692
-175,307
-171,07
-166,032
-160,26
-153,823
-146,796
-139,259
-131,315
-123,116
-114,861
-106,768
-99,045
-91,868
-85,395
-79,795
-75,239
-71,871
-69,783
-68,997
-69,518
-71,367
-74,567
-79,135
-85,068
-92,271
-100,637
-110,126
-120,585
-131,741
-143,179
-154,197
-164,069
-172,293
-178,343
-181,641
-182,008
-179,621
-175,155
-170,108
-165,94
-163,624
-164,122
-168,211
-175,838
-186,133
-197,125
-205,407
-207,561
-200,61
-181,511
-147,644
-97,212
-31,177
46,515
131,033
216,57
301,404
388,025
473,357
552,609
615,533
642,674
625,077
559,741
448,78
311,505
164,955
26,458
-82,268
-154,948
-191,392
-198,178
-193,542
-187,343
-183,132
-181,156
-174,628
-162,159
-147,292
-132,934
-123,05
-118,907
-118,835
-121,316
-124,811
-127,594
-128,38
-126,518
-121,809
-114,598
-105,653
-95,682
-85,265
-75,096
-65,843
-57,875
-51,412
-46,498
-42,988
-40,773
-39,76
-39,788
-40,703
-42,382
-44,683
-47,482
-50,665
-54,077
-57,589
-61,112
-64,542
-67,793
-70,767
-73,341
-75,435
-77,013
-78,05
-78,549
-78,513
-77,951
-76,899
-75,419
-73,574
-71,434
-69,05
-66,451
-63,682
-60,79
-57,831
-54,877
-51,975
-49,148
-46,418
-43,797
-41,293
-38,917
-36,659
-34,497
-32,411
-30,386
-28,409
-26,478
-24,58
-22,7
-20,818
-18,911
-16,964
-14,968
-12,916
-10,801
-8,622
-6,373
-4,06
-1,692
0,725
3,188
5,693
8,239
10,82
13,431
16,063
18,711
21,366
24,02
26,666
29,293
31,893
34,457
36,977
39,445
41,852
44,188
46,442
48,606
50,667
52,618
54,447
56,144
57,702
59,112
60,365
61,455
62,375
63,119
63,681
64,056
64,239
64,226
64,014
63,601
62,984
62,162
61,136
59,906
58,475
56,844
55,017
53
50,798
48,417
45,865
43,149
40,278
37,262
34,11
30,833
27,441
23,944
20,356
16,686
12,947
9,151
5,309
1,434
-2,463
-6,368
-10,27
-14,157
-18,014
-21,831
-25,594
-29,29
-32,908
-36,435
-39,859
-43,169
-46,355
-49,405
-52,312
-55,065
-57,657
-60,08
-62,328
-64,395
-66,275
-67,964
-69,458
-70,754
-71,849
-72,741
-73,431
-73,916
-74,197
-74,275
-74,152
-73,83
-73,311
-72,6
-71,701
-70,619
-69,361
-67,933
-66,343
-64,601
-62,715
-60,695
-58,551
-56,295
-53,938
-51,49
-48,962
-46,365
-43,71
-41,007
-38,268
-35,503
-32,721
-29,932
-27,147
-24,373
-21,621
-18,899
-16,214
-13,574
-10,987
-8,458
-5,993
-3,598
-1,277
0,965
3,126
5,204
7,197
9,104
10,928
12,669
14,332
15,921
17,441
18,898
20,299
21,65
22,958
24,229
25,469
26,684
27,88
29,063
30,239
31,417
32,603
33,806
35,034
36,295
37,597
38,948
40,355
41,822
43,353
44,952
46,622
48,371
50,201
52,111
54,098
56,155
58,273
60,44
62,64
64,848
67,039
69,189
71,275
73,287
75,216
77,051
78,784
80,405
81,91
83,31
84,618
85,844
87,004
88,11
89,186
90,272
91,404
92,614
93,931
95,356
96,889
98,524
100,253
102,062
103,924
105,789
107,604
109,324
110,912
112,328
113,531
114,455
115,045
115,254
115,047
114,411
113,332
111,81
109,853
107,468
104,661
101,438
97,803
93,773
89,376
84,64
79,599
74,328
68,96
63,671
58,578
53,701
48,998
44,391
39,847
35,304
30,493
25,347
20,298
15,974
13,268
11,984
10,609
8,736
7,295
10,171
22,705
45,237
73,372
97,903
107,768
99,508
74,969
39,73
4,551
-23,133
-34,584
-18,673
26,15
98,569
191,066
288,782
387,493
484,624
574,868
654,168
707,512
719,218
685,298
607,791
496,846
368,042
233,122
104,027
-3,888
-79,049
-116,166
-117,643
-96,596
-68,632
-43,184
-24,317
-10,346
2,915
15,973
27,379
35,194
37,261
33,996
27,367
19,469
12,609
7,957
5,661
5,597
7,282
10,134
13,629
17,094
19,825
21,477
21,969
21,389
19,98
17,941
15,429
12,642
9,779
7,004
4,447
2,213
0,395
-0,926
-1,677
-1,808
-1,302
-0,165
1,587
3,917
6,78
10,122
13,865
17,923
22,218
26,654
31,137
35,565
39,813
43,773
47,359
50,493
53,133
55,253
56,829
57,851
58,319
58,243
57,663
56,639
55,23
53,506
51,538
49,396
47,178
44,983
42,901
41,025
39,414
38,11
37,159
36,603
36,487
36,852
37,709
39,046
40,849
43,093
45,762
48,842
52,298
56,077
60,127
64,384
68,814
73,408
78,146
83
87,928
92,876
97,805
102,69
107,503
112,206
116,754
121,08
125,131
128,877
132,294
135,365
138,057
140,303
142,05
143,263
143,921
144,023
143,573
142,563
141,002
138,921
136,366
133,406
130,113
126,535
122,713
118,686
114,501
110,228
105,929
101,651
97,426
93,281
89,236
85,315
81,534
77,884
74,347
70,893
67,483
64,098
60,726
57,357
53,98
50,579
47,14
43,663
40,154
36,617
33,059
29,483
25,894
22,31
18,752
15,245
11,816
8,482
5,256
2,151
-0,826
-3,666
-6,366
-8,926
-11,352
-13,645
-15,808
-17,841
-19,745
-21,524
-23,183
-24,728
-26,164
-27,497
-28,729
-29,865
-30,91
-31,864
-32,732
-33,513
-34,208
-34,82
-35,351
-35,804
-36,183
-36,491
-36,732
-36,91
-37,027
-37,088
-37,095
-37,049
-36,953
-36,809
-36,618
-36,381
-36,099
-35,776
-35,411
-35,008
-34,568
-34,093
-33,585
-33,047
-32,48
-31,887
-31,271
-30,635
-29,982
-29,315
-28,637
-27,952
-27,264
-26,575
-25,888
-25,204
-24,526
-23,855
-23,192
-22,537
-21,891
-21,255
-20,63
-20,018
-19,42
-18,837
-18,272
-17,728
-17,205
-16,706
-16,229
-15,773
-15,337
-14,919
-14,516
-14,124
-13,74
-13,36
-12,979
-12,598
-12,213
-11,821
-11,417
-10,99
-10,538
-10,058
-9,551
-9,02
-8,466
-7,897
-7,325
-6,772
-6,257
-5,791
-5,38
-5,018
-4,704
-4,434
-4,206
-4,018
-3,857
-3,708
-3,563
-3,416
-3,258
-3,076
-2,836
-2,489
-1,996
-1,331
-0,489
0,516
1,671
2,956
4,339
5,776
7,206
8,577
9,856
11,035
12,1
13,03
13,782
14,29
14,506
14,408
13,989
13,27
12,267
11,01
9,557
7,991
6,409
4,869
3,369
1,876
0,352
-1,212
-2,787
-4,357
-5,944
-7,522
-9,092
-10,715
-12,414
-14,334
-16,73
-19,691
-23,235
-27,44
-32,057
-36,464
-40,24
-42,862
-43,5
-43,058
-42,42
-40,789
-39,408
-37,31
-32,913
-30,021
-29,614
-33,9
-47,397
-68,352
-96,05
-126,88
-150,351
-155,398
-130,345
-70,466
18,227
121,538
222,068
309,682
382,159
442,499
495,165
537,678
562,492
561,236
526,158
455,628
353,294
228,377
95,965
-26,328
-121,051
-179,457
-201,534
-196,973
-180,24
-159,188
-141,094
-127,088
-115,273
-109,534
-107,571
-107,791
-110,416
-111,373
-111,931
-113,795
-115,938
-118,713
-120,535
-119,85
-117,085
-112,695
-107,389
-101,915
-96,621
-91,89
-88,016
-85,093
-83,051
-81,672
-80,791
-80,288
-80,036
-79,931
-79,873
-79,776
-79,598
-79,314
-78,881
-78,284
-77,542
-76,678
-75,733
-74,753
-73,775
-72,843
-71,998
-71,274
-70,689
-70,243
-69,922
-69,707
-69,571
-69,494
-69,46
-69,437
-69,377
-69,238
-68,976
-68,554
-67,947
-67,127
-66,069
-64,759
-63,196
-61,391
-59,367
-57,152
-54,786
-52,299
-49,715
-47,061
-44,363
-41,643
-38,919
-36,205
-33,502
-30,817
-28,157
-25,525
-22,921
-20,342
-17,78
-15,223
-12,659
-10,079
-7,478
-4,854
-2,209
0,456
3,135
5,819
8,495
11,152
13,78
16,369
18,909
21,391
23,803
26,133
28,37
30,503
32,524
34,421
36,189
37,817
39,301
40,634
41,812
42,83
43,684
44,37
44,882
45,219
45,377
45,354
45,148
44,759
44,187
43,433
42,498
41,386
40,1
38,643
37,021
35,237
33,298
31,211
28,981
26,615
24,122
21,509
18,785
15,958
13,038
10,033
6,954
3,809
0,609
-2,636
-5,916
-9,221
-12,54
-15,865
-19,183
-22,487
-25,766
-29,012
-32,214
-35,366
-38,458
-41,484
-44,436
-47,308
-50,093
-52,787
-55,385
-57,882
-60,275
-62,56
-64,736
-66,8
-68,752
-70,59
-72,315
-73,926
-75,425
-76,813
-78,092
-79,264
-80,331
-81,297
-82,166
-82,94
-83,624
-84,222
-84,74
-85,18
-85,549
-85,85
-86,088
-86,269
-86,398
-86,478
-86,515
-86,513
-86,478
-86,412
-86,32
-86,205
-86,07
-85,919
-85,752
-85,572
-85,382
-85,181
-84,972
-84,757
-84,535
-84,308
-84,076
-83,841
-83,604
-83,363
-83,12
-82,875
-82,628
-82,378
-82,126
-81,872
-81,615
-81,356
-81,094
-80,827
-80,556
-80,277
-79,989
-79,691
-79,382
-79,058
-78,721
-78,369
-78,003
-77,625
-77,234
-76,832
-76,42
-75,998
-75,568
-75,128
-74,679
-74,22
-73,752
-73,274
-72,785
-72,287
-71,781
-71,267
-70,745
-70,211
-69,667
-69,117
-68,567
-68,022
-67,489
-66,979
-66,501
-66,073
-65,706
-65,414
-65,205
-65,087
-65,065
-65,144
-65,33
-65,628
-66,032
-66,527
-67,094
-67,709
-68,352
-69,003
-69,633
-70,208
-70,701
-71,091
-71,361
-71,494
-71,465
-71,254
-70,842
-70,214
-69,377
-68,35
-67,158
-65,838
-64,417
-62,92
-61,39
-59,867
-58,388
-56,982
-55,68
-54,539
-53,642
-53,071
-52,897
-53,173
-53,924
-55,198
-57,034
-59,455
-62,507
-66,193
-70,525
-75,593
-81,375
-87,746
-94,48
-101,104
-107,106
-112,139
-115,733
-117,343
-116,887
-114,528
-110,784
-106,901
-103,898
-102,408
-103,386
-107,579
-114,701
-123,879
-133,275
-139,765
-140,785
-134,088
-116,667
-86,067
-41,053
17,302
84,959
157,034
228,709
298,777
368,839
435,778
495,832
540,622
554,192
530,04
465,051
359,729
231,844
98,314
-22,975
-109,658
-156,704
-167,981
-153,676
-133,59
-118,043
-109,236
-105,559
-100,278
-91,642
-81,965
-73,534
-69,317
-69,692
-72,93
-77,639
-82,174
-85,135
-86,1
-84,941
-81,822
-77,317
-71,998
-66,321
-60,824
-56,053
-52,274
-49,594
-47,979
-47,225
-47,167
-47,678
-48,595
-49,756
-51,03
-52,297
-53,454
-54,432
-55,142
-55,512
-55,496
-55,063
-54,206
-52,932
-51,26
-49,218
-46,845
-44,182
-41,266
-38,136
-34,83
-31,395
-27,878
-24,33
-20,798
-17,316
-13,908
-10,594
-7,382
-4,275
-1,272
1,637
4,462
7,212
9,893
12,51
15,069
17,577
20,043
22,477
24,889
27,285
29,673
32,06
34,45
36,848
39,256
41,676
44,107
46,553
49,014
51,493
53,992
56,511
59,051
61,612
64,194
66,795
69,411
72,04
74,675
77,311
79,942
82,561
85,158
87,725
90,254
92,733
95,151
97,499
99,763
101,931
103,991
105,929
107,732
109,389
110,886
112,211
113,354
114,303
115,051
115,587
115,907
116,002
115,869
115,505
114,908
114,075
113,007
111,703
110,167
108,401
106,41
104,2
101,777
99,151
96,332
93,334
90,17
86,854
83,399
79,82
76,132
72,353
68,498
64,582
60,621
56,633
52,638
48,661
44,719
40,827
36,996
33,23
29,536
25,923
22,395
18,951
15,593
12,329
9,174
6,151
3,276
0,557
-2,007
-4,425
-6,699
-8,818
-10,775
-12,559
-14,158
-15,569
-16,772
-17,741
-18,465
-18,951
-19,226
-19,343
-19,337
-19,232
-19,046
-18,787
-18,471
-18,129
-17,784
-17,456
-17,171
-16,952
-16,84
-16,895
-17,148
-17,605
-18,249
-19,029
-19,913
-20,884
-21,924
-23,02
-24,156
-25,309
-26,465
-27,62
-28,76
-29,867
-30,909
-31,832
-32,608
-33,231
-33,709
-34,074
-34,346
-34,535
-34,651
-34,708
-34,714
-34,679
-34,603
-34,475
-34,291
-34,055
-33,778
-33,483
-33,181
-32,873
-32,555
-32,215
-31,845
-31,443
-31,005
-30,523
-29,997
-29,426
-28,817
-28,183
-27,534
-26,877
-26,216
-25,552
-24,889
-24,233
-23,588
-22,959
-22,349
-21,76
-21,197
-20,662
-20,159
-19,689
-19,25
-18,842
-18,464
-18,115
-17,795
-17,502
-17,234
-16,987
-16,759
-16,551
-16,358
-16,177
-16,004
-15,834
-15,665
-15,494
-15,315
-15,119
-14,895
-14,636
-14,341
-14,009
-13,642
-13,244
-12,82
-12,386
-11,96
-11,563
-11,209
-10,908
-10,663
-10,485
-10,384
-10,376
-10,471
-10,666
-10,946
-11,296
-11,693
-12,111
-12,511
-12,833
-13,006
-12,977
-12,704
-12,161
-11,322
-10,153
-8,619
-6,693
-4,363
-1,648
1,422
4,818
8,495
12,394
16,434
20,495
24,456
28,229
31,74
34,919
37,675
39,89
41,45
42,277
42,328
41,574
39,991
37,559
34,282
30,185
25,328
19,749
13,411
6,349
-1,333
-9,448
-17,577
-25,205
-31,85
-36,901
-39,696
-40,017
-37,908
-33,608
-28,245
-23,312
-20,179
-20,677
-25,348
-32,579
-41,023
-50,066
-60,904
-75,971
-93,978
-107,255
-102,986
-70,64
-7,122
82,093
184,531
292,488
403,465
513,309
616,524
698,534
740,052
731,527
671,828
569,651
442,515
305,277
172,307
59,869
-21,358
-66,075
-76,714
-67,191
-52,616
-41,812
-38,146
-37,73
-34,993
-29,81
-24,106
-20,397
-21,49
-27,075
-35,226
-44,585
-53,38
-60,098
-64,316
-65,873
-64,883
-61,987
-57,805
-52,812
-47,632
-42,864
-38,79
-35,538
-33,1
-31,298
-30,014
-29,166
-28,622
-28,258
-27,987
-27,752
-27,538
-27,342
-27,129
-26,856
-26,487
-26,011
-25,444
-24,81
-24,131
-23,424
-22,702
-21,984
-21,293
-20,639
-20,019
-19,413
-18,782
-18,106
-17,376
-16,58
-15,705
-14,722
-13,592
-12,288
-10,79
-9,085
-7,163
-5,015
-2,631
-0,021
2,793
5,777
8,885
12,084
15,355
18,672
22,018
25,366
28,689
31,975
35,218
38,411
41,548
44,621
47,621
50,552
53,419
56,235
59,011
61,756
64,469
67,153
69,804
72,422
75,001
77,533
80,003
82,401
84,717
86,943
89,07
91,089
92,988
94,756
96,383
97,861
99,18
100,333
101,314
102,117
102,739
103,177
103,429
103,495
103,373
103,062
102,562
101,873
100,997
99,934
98,688
97,26
95,656
93,879
91,937
89,835
87,58
85,179
82,64
79,971
77,179
74,273
71,26
68,149
64,949
61,667
58,312
54,892
51,416
47,891
44,325
40,727
37,103
33,461
29,808
26,151
22,495
18,848
15,217
11,606
8,022
4,47
0,956
-2,516
-5,942
-9,318
-12,64
-15,905
-19,11
-22,253
-25,331
-28,341
-31,281
-34,148
-36,94
-39,654
-42,288
-44,839
-47,305
-49,684
-51,973
-54,172
-56,276
-58,285
-60,196
-62,007
-63,717
-65,323
-66,825
-68,222
-69,512
-70,695
-71,771
-72,739
-73,6
-74,352
-74,996
-75,531
-75,957
-76,274
-76,481
-76,58
-76,57
-76,452
-76,227
-75,896
-75,461
-74,923
-74,286
-73,55
-72,72
-71,797
-70,785
-69,686
-68,506
-67,247
-65,913
-64,509
-63,04
-61,51
-59,923
-58,283
-56,596
-54,864
-53,092
-51,283
-49,443
-47,575
-45,684
-43,775
-41,853
-39,924
-37,994
-36,068
-34,153
-32,254
-30,377
-28,528
-26,71
-24,928
-23,186
-21,488
-19,837
-18,235
-16,687
-15,197
-13,768
-12,405
-11,112
-9,892
-8,747
-7,678
-6,686
-5,772
-4,933
-4,17
-3,483
-2,875
-2,351
-1,914
-1,564
-1,296
-1,103
-0,972
-0,887
-0,832
-0,786
-0,733
-0,664
-0,573
-0,466
-0,347
-0,221
-0,084
0,075
0,266
0,493
0,754
1,041
1,334
1,602
1,805
1,889
1,814
1,552
1,095
0,458
-0,335
-1,251
-2,269
-3,382
-4,58
-5,849
-7,169
-8,509
-9,819
-11,036
-12,069
-12,8
-13,13
-12,971
-12,274
-11,024
-9,234
-6,938
-4,162
-0,93
2,739
6,819
11,272
16,051
21,085
26,283
31,52
36,627
41,444
45,815
49,617
52,772
55,231
56,968
57,962
58,192
57,632
56,264
54,07
51,026
47,132
42,403
36,904
30,768
24,117
17,063
9,705
2,089
-5,75
-13,731
-21,845
-30,154
-38,573
-46,919
-54,838
-61,697
-66,939
-70,221
-71,122
-69,246
-64,657
-57,692
-49,276
-41,122
-34,685
-30,994
-31,062
-35,36
-43,326
-53,809
-64,481
-71,623
-71,719
-61,522
-37,834
1,408
55,331
120,981
194,706
270,797
347,119
425,158
500,963
569,743
622,226
640,982
617,39
549,365
441,305
312,002
180,685
65,176
-19,865
-71,904
-96,05
-103,819
-106,634
-109,508
-113,006
-112,836
-106,495
-96,447
-86,025
-79,066
-77,592
-80,656
-86,598
-93,993
-101,304
-106,951
-110,051
-110,149
-107,198
-101,813
-94,666
-86,266
-77,306
-68,552
-60,453
-53,283
-47,136
-41,874
-37,438
-33,843
-31,061
-29,063
-27,815
-27,26
-27,354
-28,068
-29,336
-31,069
-33,164
-35,518
-38,052
-40,709
-43,447
-46,225
-48,979
-51,632
-54,083
-56,235
-58,021
-59,402
-60,358
-60,886
-60,992
-60,694
-60,028
-59,037
-57,752
-56,198
-54,389
-52,34
-50,082
-47,664
-45,147
-42,6
-40,072
-37,602
-35,217
-32,937
-30,776
-28,742
-26,83
-25,026
-23,322
-21,714
-20,198
-18,775
-17,436
-16,164
-14,94
-13,739
-12,545
-11,35
-10,146
-8,929
-7,695
-6,438
-5,163
-3,879
-2,594
-1,317
-0,055
1,189
2,398
3,55
4,623
5,595
6,454
7,2
7,832
8,345
8,74
9,01
9,165
9,227
9,214
9,136
9,006
8,834
8,646
8,495
8,424
8,468
8,649
8,963
9,413
10,009
10,744
11,603
12,55
13,515
14,443
15,296
16,029
16,608
16,969
17,01
16,647
15,815
14,465
12,573
10,114
7,041
3,341
-0,972
-5,854
-11,214
-16,974
-23,072
-29,441
-36,013
-42,694
-49,354
-55,869
-62,146
-68,107
-73,691
-78,832
-83,43
-87,415
-90,748
-93,42
-95,469
-96,932
-97,836
-98,21
-98,093
-97,539
-96,63
-95,453
-94,065
-92,51
-90,818
-89,032
-87,234
-85,498
-83,889
-82,435
-81,132
-79,971
-78,948
-78,067
-77,328
-76,728
-76,248
-75,869
-75,592
-75,431
-75,418
-75,559
-75,83
-76,19
-76,602
-77,061
-77,592
-78,221
-78,963
-79,819
-80,784
-81,849
-83,003
-84,212
-85,428
-86,595
-87,647
-88,551
-89,299
-89,895
-90,343
-90,616
-90,666
-90,444
-89,916
-89,058
-87,852
-86,29
-84,381
-82,183
-79,775
-77,235
-74,629
-71,997
-69,356
-66,724
-64,123
-61,588
-59,167
-56,905
-54,841
-53,019
-51,481
-50,266
-49,379
-48,775
-48,384
-48,144
-48,008
-47,955
-47,973
-48,043
-48,147
-48,269
-48,398
-48,519
-48,615
-48,656
-48,604
-48,425
-48,109
-47,68
-47,178
-46,638
-46,081
-45,517
-44,951
-44,393
-43,85
-43,315
-42,774
-42,215
-41,632
-41,028
-40,417
-39,809
-39,204
-38,592
-37,953
-37,271
-36,532
-35,726
-34,841
-33,863
-32,783
-31,599
-30,313
-28,932
-27,459
-25,894
-24,231
-22,466
-20,595
-18,617
-16,539
-14,367
-12,109
-9,779
-7,39
-4,967
-2,537
-0,127
2,249
4,581
6,868
9,105
11,287
13,406
15,458
17,448
19,384
21,274
23,122
24,937
26,739
28,559
30,437
32,408
34,483
36,661
38,922
41,255
43,644
46,071
48,514
50,935
53,296
55,57
57,737
59,773
61,646
63,309
64,712
65,821
66,63
67,145
67,39
67,376
67,107
66,583
65,801
64,785
63,563
62,15
60,537
58,702
56,623
54,277
51,67
48,761
45,417
41,572
37,259
32,662
28,202
24,331
21,361
19,62
19,523
21,229
24,577
28,956
33,017
35,353
35,009
31,184
23,23
11,118
-4,456
-21,8
-37,73
-48,752
-52,061
-44,954
-24,881
9,879
59,985
123,356
194,656
268,408
340,433
409,959
477,98
541,344
593,281
622,444
616,783
572,999
493,789
386,847
266,11
143,731
32,472
-52,599
-104,772
-124,071
-117,789
-101,312
-84,779
-72,224
-63,303
-53,133
-40,684
-28,004
-17,198
-10,971
-9,548
-11,214
-14,551
-17,842
-19,622
-19,438
-17,169
-12,993
-7,533
-1,391
4,925
10,807
15,674
19,219
21,328
22,05
21,601
20,18
17,957
15,146
11,977
8,645
5,317
2,126
-0,841
-3,504
-5,787
-7,628
-8,978
-9,789
-10,047
-9,758
-8,942
-7,639
-5,905
-3,805
-1,423
1,15
3,839
6,57
9,287
11,951
14,527
16,99
19,321
21,503
23,523
25,383
27,082
28,629
30,036
31,321
32,511
33,633
34,711
35,762
36,801
37,836
38,874
39,92
40,975
42,041
43,12
44,216
45,333
46,473
47,639
48,832
50,051
51,294
52,559
53,845
55,152
56,477
57,82
59,18
60,554
61,943
63,341
64,746
66,151
67,549
68,933
70,296
71,631
72,927
74,178
75,375
76,509
77,573
78,559
79,458
80,262
80,963
81,554
82,028
82,377
82,596
82,678
82,619
82,415
82,061
81,555
80,895
80,079
79,106
77,977
76,693
75,255
73,666
71,929
70,049
68,029
65,876
63,596
61,196
58,682
56,061
53,343
50,535
47,644
44,681
41,652
38,567
35,435
32,263
29,062
25,839
22,602
19,36
16,12
12,89
9,677
6,487
3,328
0,205
-2,875
-5,908
-8,887
-11,809
-14,668
-17,462
-20,186
-22,836
-25,41
-27,906
-30,319
-32,649
-34,894
-37,051
-39,119
-41,097
-42,984
-44,779
-46,481
-48,091
-49,608
-51,031
-52,36
-53,596
-54,738
-55,786
-56,741
-57,602
-58,369
-59,044
-59,626
-60,116
-60,515
-60,824
-61,043
-61,174
-61,219
-61,179
-61,056
-60,852
-60,572
-60,216
-59,79
-59,296
-58,738
-58,12
-57,446
-56,72
-55,948
-55,132
-54,278
-53,391
-52,475
-51,536
-50,578
-49,606
-48,626
-47,644
-46,665
-45,694
-44,737
-43,8
-42,888
-42,006
-41,161
-40,357
-39,599
-38,891
-38,237
-37,641
-37,107
-36,635
-36,229
-35,889
-35,616
-35,412
-35,275
-35,206
-35,204
-35,267
-35,396
-35,587
-35,841
-36,154
-36,525
-36,951
-37,43
-37,958
-38,534
-39,153
-39,811
-40,505
-41,229
-41,978
-42,748
-43,53
-44,32
-45,111
-45,898
-46,675
-47,436
-48,178
-48,896
-49,588
-50,249
-50,876
-51,465
-52,013
-52,518
-52,976
-53,385
-53,744
-54,047
-54,295
-54,487
-54,621
-54,697
-54,711
-54,655
-54,53
-54,337
-54,082
-53,77
-53,408
-53,005
-52,573
-52,133
-51,7
-51,288
-50,905
-50,555
-50,247
-49,993
-49,809
-49,707
-49,686
-49,735
-49,842
-49,995
-50,176
-50,36
-50,501
-50,549
-50,468
-50,232
-49,829
-49,238
-48,428
-47,364
-46,014
-44,362
-42,413
-40,181
-37,679
-34,929
-31,962
-28,839
-25,651
-22,488
-19,413
-16,482
-13,757
-11,333
-9,342
-7,906
-7,119
-7,04
-7,719
-9,218
-11,591
-14,876
-19,066
-24,094
-29,942
-36,649
-44,164
-52,373
-61,012
-69,559
-77,534
-84,542
-90,013
-93,449
-94,776
-93,966
-91,425
-88,37
-85,845
-84,916
-87,19
-92,451
-98,46
-103,914
-106,537
-106,588
-109,005
-113,656
-117,418
-112,918
-85,578
-28,723
57,468
167,133
284,377
396,471
491,025
556,04
587,082
577,869
528,675
444,269
326,106
187,095
41,809
-92,281
-189,476
-239,898
-245,385
-217,772
-181,612
-151,669
-132,574
-123,082
-114,973
-104,926
-94,622
-86,445
-83,75
-86,759
-93,163
-100,678
-106,787
-110,248
-110,983
-108,996
-104,772
-99,007
-92,327
-85,539
-79,443
-74,419
-70,589
-67,946
-66,293
-65,47
-65,361
-65,776
-66,537
-67,521
-68,626
-69,784
-70,939
-72,004
-72,878
-73,488
-73,783
-73,744
-73,373
-72,676
-71,671
-70,381
-68,839
-67,077
-65,125
-63,01
-60,762
-58,417
-56,013
-53,595
-51,201
-48,861
-46,595
-44,412
-42,314
-40,295
-38,348
-36,458
-34,611
-32,795
-31
-29,218
-27,441
-25,659
-23,862
-22,041
-20,187
-18,29
-16,346
-14,348
-12,294
-10,182
-8,012
-5,785
-3,503
-1,166
1,223
3,664
6,155
8,693
11,276
13,9
16,561
19,255
21,975
24,715
27,468
30,226
32,981
35,724
38,448
41,141
43,795
46,4
48,945
51,42
53,814
56,117
58,319
60,41
62,379
64,217
65,914
67,463
68,855
70,083
71,14
72,019
72,717
73,228
73,548
73,676
73,608
73,344
72,883
72,226
71,374
70,329
69,095
67,673
66,07
64,29
62,338
60,222
57,948
55,525
52,959
50,262
47,441
44,508
41,472
38,344
35,137
31,86
28,525
25,144
21,73
18,292
14,844
11,396
7,959
4,545
1,165
-2,173
-5,456
-8,677
-11,826
-14,893
-17,872
-20,753
-23,529
-26,193
-28,738
-31,158
-33,447
-35,6
-37,612
-39,479
-41,198
-42,766
-44,181
-45,442
-46,548
-47,499
-48,296
-48,938
-49,43
-49,772
-49,967
-50,02
-49,935
-49,715
-49,365
-48,891
-48,298
-47,592
-46,779
-45,863
-44,853
-43,753
-42,57
-41,311
-39,983
-38,592
-37,147
-35,653
-34,119
-32,552
-30,958
-29,345
-27,72
-26,089
-24,459
-22,837
-21,228
-19,64
-18,077
-16,546
-15,052
-13,599
-12,192
-10,833
-9,527
-8,275
-7,08
-5,944
-4,868
-3,853
-2,9
-2,011
-1,185
-0,422
0,277
0,913
1,487
2,001
2,457
2,856
3,202
3,497
3,743
3,944
4,103
4,224
4,312
4,372
4,408
4,426
4,433
4,435
4,44
4,452
4,479
4,524
4,594
4,692
4,822
4,987
5,189
5,431
5,716
6,048
6,429
6,864
7,354
7,901
8,509
9,179
9,91
10,701
11,548
12,448
13,402
14,41
15,47
16,578
17,725
18,903
20,102
21,313
22,518
23,694
24,817
25,866
26,829
27,703
28,483
29,165
29,747
30,223
30,598
30,885
31,088
31,215
31,273
31,266
31,222
31,187
31,204
31,322
31,572
31,967
32,525
33,255
34,163
35,247
36,492
37,869
39,363
40,964
42,659
44,436
46,25
48,017
49,631
50,976
51,937
52,431
52,394
51,752
50,433
48,38
45,536
41,884
37,453
32,207
26,051
19,006
11,184
2,875
-5,354
-13,037
-19,905
-25,525
-29,411
-31,403
-31,464
-30,07
-28,451
-27,401
-27,172
-28,501
-32,103
-37,776
-45,18
-51,993
-53,543
-47,838
-34,289
-13,293
12,053
42,535
81,34
131,238
196,235
275,668
366,247
461,826
550,852
622,589
662,579
657,813
604,236
500,701
358,507
199,504
45,054
-80,077
-160,149
-194,416
-188,787
-158,558
-118,827
-79,247
-48,294
-28,478
-21,254
-25,58
-34,852
-44,851
-51,302
-52,591
-52,575
-52,838
-53,827
-55,403
-55,079
-51,948
-46,621
-39,659
-32,097
-24,761
-17,98
-11,988
-6,936
-2,779
0,639
3,403
5,558
7,144
8,173
8,679
8,723
8,356
7,613
6,555
5,261
3,79
2,2
0,528
-1,206
-2,988
-4,796
-6,594
-8,335
-9,938
-11,328
-12,457
-13,293
-13,829
-14,071
-14,025
-13,707
-13,134
-12,327
-11,301
-10,062
-8,611
-6,954
-5,109
-3,111
-1,013
1,135
3,299
5,454
7,586
9,685
11,743
13,76
15,745
17,709
19,658
21,595
23,516
25,422
27,319
29,22
31,143
33,1
35,099
37,144
39,237
41,377
43,562
45,786
48,034
50,297
52,562
54,823
57,072
59,302
61,503
63,664
65,776
67,828
69,812
71,72
73,541
75,268
76,892
78,407
79,806
81,085
82,236
83,253
84,13
84,861
85,441
85,866
86,131
86,233
86,168
85,934
85,53
84,956
84,212
83,299
82,217
80,97
79,561
77,993
76,27
74,396
72,377
70,218
67,923
65,499
62,953
60,291
57,521
54,65
51,687
48,64
45,516
42,326
39,079
35,782
32,445
29,078
25,689
22,289
18,885
15,487
12,105
8,747
5,42
2,134
-1,105
-4,288
-7,41
-10,464
-13,443
-16,342
-19,155
-21,877
-24,503
-27,027
-29,446
-31,756
-33,952
-36,031
-37,991
-39,829
-41,542
-43,13
-44,591
-45,923
-47,128
-48,204
-49,152
-49,973
-50,668
-51,239
-51,688
-52,018
-52,232
-52,332
-52,322
-52,205
-51,985
-51,665
-51,25
-50,744
-50,151
-49,476
-48,723
-47,897
-47,005
-46,05
-45,039
-43,978
-42,871
-41,726
-40,548
-39,343
-38,117
-36,877
-35,627
-34,375
-33,126
-31,885
-30,658
-29,451
-28,268
-27,115
-25,995
-24,915
-23,877
-22,885
-21,944
-21,057
-20,226
-19,454
-18,744
-18,098
-17,517
-17,002
-16,555
-16,175
-15,864
-15,619
-15,441
-15,328
-15,279
-15,291
-15,362
-15,489
-15,668
-15,897
-16,171
-16,486
-16,837
-17,22
-17,63
-18,061
-18,507
-18,961
-19,416
-19,868
-20,31
-20,735
-21,137
-21,511
-21,853
-22,158
-22,42
-22,635
-22,797
-22,902
-22,947
-22,928
-22,841
-22,683
-22,451
-22,142
-21,758
-21,298
-20,762
-20,148
-19,453
-18,679
-17,833
-16,922
-15,955
-14,941
-13,89
-12,819
-11,747
-10,692
-9,666
-8,683
-7,749
-6,877
-6,084
-5,384
-4,79
-4,303
-3,915
-3,614
-3,39
-3,228
-3,105
-2,989
-2,843
-2,64
-2,368
-2,01
-1,552
-0,965
-0,214
0,729
1,877
3,232
4,785
6,519
8,417
10,45
12,566
14,712
16,825
18,865
20,801
22,575
24,118
25,334
26,127
26,433
26,195
25,34
23,794
21,489
18,361
14,406
9,62
3,915
-2,702
-10,119
-18,084
-26,093
-33,623
-40,285
-45,637
-49,146
-50,588
-50,076
-48,174
-46,172
-45,336
-46,492
-50,462
-57,926
-68,833
-82,356
-96,652
-108,548
-114,835
-112,722
-99,331
-72,13
-29,36
28,201
96,943
172,438
249,521
326,752
406,475
485,901
560,12
619,129
644,909
628,945
568,922
467,85
343,777
212,692
90,068
-6,049
-71,15
-105,904
-116,389
-117,583
-117,076
-117,198
-117,785
-113,465
-103,634
-91,833
-80,898
-74,142
-72,583
-74,784
-79,389
-85,084
-90,294
-93,718
-94,678
-92,914
-88,678
-82,622
-75,329
-67,32
-59,261
-51,785
-45,263
-39,888
-35,674
-32,512
-30,361
-29,18
-28,878
-29,34
-30,461
-32,163
-34,372
-37,022
-40,01
-43,207
-46,507
-49,829
-53,103
-56,262
-59,23
-61,908
-64,209
-66,087
-67,511
-68,466
-68,95
-68,962
-68,518
-67,655
-66,422
-64,874
-63,055
-60,994
-58,725
-56,289
-53,737
-51,136
-48,54
-45,983
-43,493
-41,088
-38,785
-36,597
-34,53
-32,573
-30,715
-28,944
-27,254
-25,646
-24,112
-22,641
-21,217
-19,819
-18,432
-17,049
-15,664
-14,273
-12,874
-11,466
-10,051
-8,641
-7,241
-5,857
-4,493
-3,15
-1,832
-0,545
0,704
1,91
3,067
4,17
5,214
6,194
7,104
7,94
8,698
9,375
9,967
10,47
10,877
11,184
11,385
11,475
11,449
11,302
11,028
10,624
10,087
9,413
8,601
7,648
6,553
5,316
3,935
2,413
0,748
-1,057
-3
-5,079
-7,29
-9,63
-12,094
-14,676
-17,372
-20,176
-23,079
-26,074
-29,155
-32,31
-35,533
-38,812
-42,138
-45,499
-48,886
-52,287
-55,69
-59,085
-62,459
-65,802
-69,101
-72,347
-75,53
-78,638
-81,662
-84,594
-87,424
-90,145
-92,749
-95,229
-97,578
-99,791
-101,863
-103,789
-105,566
-107,191
-108,662
-109,978
-111,138
-112,142
-112,991
-113,688
-114,234
-114,634
-114,89
-115,009
-114,996
-114,855
-114,595
-114,222
-113,742
-113,164
-112,494
-111,74
-110,909
-110,009
-109,047
-108,03
-106,964
-105,857
-104,713
-103,54
-102,342
-101,124
-99,892
-98,648
-97,398
-96,144
-94,889
-93,635
-92,384
-91,139
-89,899
-88,665
-87,437
-86,215
-84,997
-83,782
-82,569
-81,355
-80,137
-78,915
-77,686
-76,448
-75,198
-73,936
-72,66
-71,368
-70,06
-68,735
-67,392
-66,031
-64,654
-63,261
-61,853
-60,432
-58,999
-57,559
-56,113
-54,664
-53,217
-51,774
-50,34
-48,92
-47,517
-46,136
-44,784
-43,464
-42,183
-40,947
-39,76
-38,628
-37,556
-36,548
-35,607
-34,737
-33,94
-33,218
-32,572
-32,003
-31,511
-31,096
-30,759
-30,497
-30,31
-30,196
-30,151
-30,171
-30,252
-30,386
-30,569
-30,791
-31,045
-31,322
-31,614
-31,91
-32,204
-32,485
-32,744
-32,97
-33,149
-33,271
-33,329
-33,319
-33,237
-33,085
-32,865
-32,585
-32,257
-31,893
-31,503
-31,092
-30,666
-30,226
-29,774
-29,314
-28,852
-28,387
-27,91
-27,411
-26,873
-26,28
-25,611
-24,843
-23,938
-22,866
-21,605
-20,145
-18,483
-16,632
-14,608
-12,43
-10,123
-7,724
-5,281
-2,849
-0,481
1,777
3,881
5,779
7,412
8,722
9,674
10,245
10,432
10,247
9,714
8,864
7,74
6,401
4,91
3,324
1,683
-0,003
-1,732
-3,487
-5,232
-6,949
-8,657
-10,4
-12,24
-14,241
-16,444
-18,926
-21,856
-25,319
-29,276
-33,548
-37,73
-41,421
-44,388
-46,334
-46,846
-45,753
-43,163
-39,605
-36,225
-34,055
-33,651
-35,526
-40,158
-47,539
-57,029
-67,03
-74,824
-77,747
-73,563
-60,039
-35,011
3,434
54,833
115,802
182,397
250,312
319,317
393,352
470,836
545,929
606,835
635,387
622,785
569,187
480,751
372,436
257,522
147,203
54,41
-12,569
-50,749
-63,28
-61,037
-54,459
-49,435
-47,094
-43,853
-37,948
-30,572
-23,855
-20,879
-22,65
-27,883
-35,075
-42,394
-48,017
-51,164
-51,548
-49,058
-44,162
-37,495
-29,608
-21,258
-13,27
-6,098
0,03
5,012
8,984
12,046
14,238
15,684
16,51
16,799
16,624
16,034
15,057
13,787
12,355
10,899
9,577
8,489
7,692
7,228
7,113
7,351
7,94
8,865
10,104
11,648
13,493
15,631
18,046
20,698
23,529
26,471
29,443
32,386
35,259
38,034
40,696
43,24
45,664
47,975
50,183
52,288
54,281
56,157
57,906
59,531
61,045
62,463
63,808
65,1
66,355
67,587
68,802
70,007
71,2
72,381
73,544
74,687
75,811
76,92
78,016
79,103
80,179
81,243
82,291
83,32
84,323
85,295
86,229
87,119
87,962
88,753
89,488
90,164
90,775
91,317
91,784
92,17
92,469
92,674
92,779
92,777
92,664
92,434
92,083
91,606
91
90,263
89,39
88,38
87,23
85,94
84,507
82,932
81,215
79,357
77,36
75,227
72,961
70,568
68,053
65,421
62,68
59,836
56,897
53,871
50,766
47,592
44,356
41,069
37,74
34,379
30,997
27,604
24,209
20,822
17,453
14,111
10,805
7,544
4,338
1,194
-1,879
-4,872
-7,779
-10,592
-13,303
-15,908
-18,401
-20,777
-23,033
-25,164
-27,17
-29,047
-30,795
-32,412
-33,9
-35,258
-36,488
-37,591
-38,571
-39,429
-40,168
-40,793
-41,307
-41,715
-42,019
-42,226
-42,34
-42,364
-42,304
-42,166
-41,955
-41,675
-41,333
-40,935
-40,486
-39,993
-39,46
-38,893
-38,298
-37,68
-37,042
-36,391
-35,729
-35,061
-34,39
-33,719
-33,051
-32,39
-31,736
-31,092
-30,46
-29,841
-29,236
-28,647
-28,074
-27,519
-26,983
-26,466
-25,97
-25,495
-25,044
-24,615
-24,211
-23,83
-23,473
-23,141
-22,832
-22,546
-22,283
-22,041
-21,822
-21,623
-21,444
-21,285
-21,145
-21,025
-20,923
-20,84
-20,776
-20,732
-20,707
-20,702
-20,718
-20,755
-20,814
-20,896
-21,001
-21,128
-21,277
-21,45
-21,643
-21,858
-22,093
-22,346
-22,618
-22,905
-23,209
-23,528
-23,861
-24,207
-24,566
-24,937
-25,32
-25,714
-26,117
-26,528
-26,947
-27,37
-27,796
-28,222
-28,644
-29,059
-29,464
-29,855
-30,228
-30,58
-30,908
-31,208
-31,477
-31,71
-31,903
-32,052
-32,154
-32,203
-32,196
-32,13
-32,001
-31,806
-31,543
-31,21
-30,803
-30,317
-29,745
-29,079
-28,32
-27,466
-26,523
-25,498
-24,397
-23,236
-22,034
-20,81
-19,583
-18,366
-17,165
-15,986
-14,841
-13,745
-12,716
-11,772
-10,91
-10,125
-9,406
-8,732
-8,079
-7,406
-6,652
-5,757
-4,674
-3,372
-1,837
-0,061
1,974
4,294
6,923
9,879
13,154
16,724
20,564
24,634
28,875
33,21
37,52
41,683
45,602
49,207
52,446
55,277
57,639
59,448
60,614
61,054
60,704
59,534
57,534
54,697
51,03
46,567
41,368
35,525
29,145
22,248
14,791
6,838
-1,451
-9,717
-17,358
-23,876
-28,897
-31,906
-32,431
-30,372
-25,851
-19,622
-13,181
-7,605
-3,708
-2,712
-5,232
-10,839
-19,031
-26,928
-30,224
-27,154
-15,051
7,211
37,524
76,963
126,179
185,991
261,844
355,461
461,588
569,197
657,155
704,196
702,383
654,072
573,506
479,513
379,902
278,846
180,12
88,213
14,845
-31,419
-51,394
-52,84
-46,792
-40,663
-35,581
-28,368
-17,512
-4,772
7,052
14,801
17,397
15,936
11,735
6,114
0,569
-3,651
-5,862
-5,801
-3,755
-0,383
3,749
8,18
12,357
15,745
18,062
19,193
19,224
18,388
16,862
14,784
12,313
9,601
6,778
3,963
1,254
-1,277
-3,539
-5,462
-7,001
-8,125
-8,828
-9,119
-9,02
-8,564
-7,795
-6,756
-5,485
-4,019
-2,397
-0,664
1,132
2,944
4,727
6,449
8,09
9,633
11,073
12,41
13,648
14,801
15,883
16,904
17,874
18,8
19,69
20,554
21,404
22,248
23,097
23,96
24,845
25,757
26,704
27,69
28,716
29,787
30,902
32,064
33,276
34,54
35,859
37,235
38,668
40,159
41,708
43,314
44,973
46,682
48,437
50,23
52,056
53,907
55,775
57,651
59,526
61,389
63,23
65,038
66,801
68,51
70,151
71,714
73,186
74,558
75,817
76,954
77,959
78,823
79,537
80,095
80,489
80,713
80,763
80,633
80,32
79,822
79,135
78,261
77,199
75,95
74,518
72,907
71,12
69,163
67,044
64,77
62,349
59,789
57,101
54,294
51,379
48,367
45,269
42,098
38,864
35,581
32,259
28,911
25,546
22,176
18,811
15,46
12,133
8,838
5,585
2,38
-0,769
-3,854
-6,87
-9,811
-12,671
-15,447
-18,133
-20,727
-23,227
-25,63
-27,934
-30,14
-32,245
-34,251
-36,158
-37,966
-39,678
-41,295
-42,819
-44,254
-45,602
-46,866
-48,05
-49,155
-50,185
-51,142
-52,029
-52,849
-53,603
-54,293
-54,922
-55,492
-56,005
-56,462
-56,867
-57,219
-57,523
-57,778
-57,988
-58,153
-58,276
-58,359
-58,403
-58,41
-58,383
-58,323
-58,233
-58,115
-57,97
-57,8
-57,607
-57,392
-57,157
-56,905
-56,637
-56,355
-56,063
-55,762
-55,455
-55,146
-54,837
-54,532
-54,233
-53,943
-53,665
-53,402
-53,157
-52,931
-52,727
-52,547
-52,393
-52,266
-52,167
-52,096
-52,054
-52,039
-52,051
-52,09
-52,153
-52,241
-52,352
-52,485
-52,637
-52,809
-52,997
-53,201
-53,418
-53,646
-53,883
-54,126
-54,372
-54,621
-54,869
-55,114
-55,353
-55,585
-55,808
-56,019
-56,217
-56,401
-56,568
-56,72
-56,854
-56,973
-57,076
-57,165
-57,243
-57,311
-57,372
-57,428
-57,483
-57,538
-57,597
-57,662
-57,734
-57,815
-57,907
-58,013
-58,133
-58,27
-58,424
-58,598
-58,794
-59,012
-59,254
-59,519
-59,807
-60,117
-60,446
-60,794
-61,159
-61,537
-61,926
-62,322
-62,724
-63,128
-63,528
-63,917
-64,284
-64,621
-64,923
-65,187
-65,414
-65,605
-65,766
-65,906
-66,04
-66,183
-66,344
-66,532
-66,744
-66,981
-67,247
-67,549
-67,899
-68,307
-68,768
-69,271
-69,802
-70,337
-70,844
-71,28
-71,583
-71,696
-71,575
-71,191
-70,538
-69,613
-68,408
-66,914
-65,11
-62,985
-60,547
-57,817
-54,821
-51,603
-48,218
-44,746
-41,299
-37,986
-34,894
-32,088
-29,598
-27,45
-25,68
-24,338
-23,509
-23,268
-23,67
-24,754
-26,524
-28,994
-32,185
-36,072
-40,591
-45,679
-51,245
-57,296
-63,965
-71,22
-78,888
-86,687
-94,101
-100,661
-106,076
-109,839
-111,349
-110,524
-107,629
-103,326
-98,833
-95,306
-93,718
-95,083
-100,323
-108,371
-116,357
-122,661
-125,542
-124,742
-122,914
-116,213
-97,551
-63,043
-6,379
70,187
157,274
252,351
349,49
441,513
523,641
581,723
601,528
578,598
512,077
409,522
287,885
160,742
43,251
-48,124
-108,938
-139,707
-147,747
-148,951
-151,072
-155,894
-161,737
-161,451
-153,018
-139,234
-123,151
-108,875
-98,519
-91,5
-86,959
-84,33
-83,085
-82,891
-83,671
-84,916
-85,757
-85,995
-85,803
-85,189
-84,328
-83,235
-81,524
-79,337
-77,33
-75,795
-74,849
-74,542
-74,664
-75,191
-76,356
-78,073
-79,982
-81,817
-83,324
-84,376
-85,053
-85,353
-85,196
-84,585
-83,56
-82,181
-80,546
-78,708
-76,67
-74,448
-72,066
-69,565
-67,006
-64,441
-61,91
-59,442
-57,052
-54,754
-52,557
-50,465
-48,477
-46,585
-44,778
-43,047
-41,39
-39,805
-38,291
-36,842
-35,443
-34,084
-32,754
-31,445
-30,152
-28,869
-27,588
-26,305
-25,015
-23,717
-22,408
-21,084
-19,739
-18,369
-16,968
-15,534
-14,063
-12,554
-11,003
-9,412
-7,781
-6,112
-4,406
-2,667
-0,896
0,902
2,725
4,568
6,427
8,295
10,166
12,03
13,875
15,692
17,468
19,19
20,844
22,417
23,896
25,272
26,533
27,668
28,664
29,506
30,181
30,683
31,008
31,15
31,106
30,876
30,468
29,896
29,175
28,315
27,315
26,171
24,882
23,449
21,877
20,168
18,314
16,305
14,137
11,811
9,327
6,677
3,839
0,777
-2,533
-6,093
-9,888
-13,894
-18,092
-22,464
-26,979
-31,593
-36,244
-40,878
-45,457
-49,949
-54,314
-58,492
-62,404
-65,962
-69,105
-71,799
-74,031
-75,794
-77,069
-77,85
-78,156
-78,029
-77,528
-76,692
-75,535
-74,076
-72,356
-70,45
-68,446
-66,427
-64,448
-62,542
-60,735
-59,061
-57,556
-56,244
-55,121
-54,165
-53,354
-52,694
-52,21
-51,915
-51,79
-51,785
-51,846
-51,939
-52,048
-52,165
-52,275
-52,357
-52,391
-52,374
-52,317
-52,232
-52,126
-51,978
-51,76
-51,459
-51,084
-50,665
-50,225
-49,774
-49,31
-48,834
-48,355
-47,883
-47,419
-46,955
-46,477
-45,975
-45,449
-44,912
-44,373
-43,837
-43,296
-42,737
-42,15
-41,533
-40,886
-40,205
-39,484
-38,718
-37,91
-37,068
-36,2
-35,312
-34,404
-33,477
-32,531
-31,57
-30,6
-29,626
-28,653
-27,686
-26,731
-25,795
-24,884
-24,005
-23,162
-22,356
-21,591
-20,87
-20,195
-19,57
-18,996
-18,476
-18,01
-17,602
-17,25
-16,956
-16,717
-16,529
-16,39
-16,296
-16,243
-16,227
-16,242
-16,283
-16,347
-16,429
-16,525
-16,631
-16,739
-16,843
-16,938
-17,017
-17,073
-17,098
-17,086
-17,029
-16,921
-16,758
-16,533
-16,24
-15,873
-15,42
-14,879
-14,247
-13,526
-12,718
-11,83
-10,869
-9,85
-8,791
-7,708
-6,613
-5,518
-4,427
-3,352
-2,302
-1,286
-0,317
0,601
1,476
2,318
3,142
3,976
4,844
5,779
6,825
8,009
9,349
10,856
12,527
14,366
16,377
18,562
20,924
23,454
26,124
28,901
31,738
34,571
37,338
39,977
42,413
44,592
46,478
48,046
49,284
50,178
50,697
50,781
50,382
49,448
47,96
45,938
43,4
40,37
36,872
32,917
28,519
23,724
18,503
12,748
6,467
-0,248
-7,139
-13,657
-19,294
-23,689
-26,338
-26,772
-24,959
-21,085
-15,898
-10,901
-7,351
-6,249
-8,759
-15,552
-26,283
-40,087
-54,905
-67,231
-73,84
-71,558
-56,547
-26,77
16,771
72,435
136,929
207,394
286,325
374,731
467,584
555,926
622,633
648,743
626,848
555,8
441,913
304,133
159,037
25,582
-73,709
-131,856
-149,438
-136,06
-113,077
-92,144
-77,537
-68,994
-58,901
-45,286
-30,763
-17,752
-10,178
-9,047
-12,417
-18,503
-25,174
-30,503
-33,773
-34,727
-33,368
-30,201
-25,838
-20,812
-15,752
-11,289
-7,698
-5,04
-3,269
-2,167
-1,565
-1,351
-1,372
-1,479
-1,587
-1,648
-1,629
-1,514
-1,247
-0,78
-0,106
0,754
1,733
2,768
3,816
4,838
5,805
6,686
7,464
8,141
8,743
9,307
9,857
10,391
10,897
11,373
11,837
12,325
12,892
13,582
14,427
15,456
16,696
18,167
19,876
21,809
23,931
26,197
28,576
31,051
33,614
36,258
38,97
41,728
44,513
47,314
50,122
52,925
55,713
58,472
61,198
63,897
66,584
69,277
71,986
74,713
77,459
80,221
82,994
85,775
88,554
91,319
94,057
96,759
99,416
102,021
104,564
107,033
109,415
111,696
113,864
115,911
117,825
119,598
121,222
122,69
123,998
125,144
126,123
126,933
127,57
128,031
128,313
128,415
128,337
128,076
127,634
127,011
126,209
125,231
124,082
122,765
121,287
119,652
117,868
115,942
113,88
111,692
109,386
106,97
104,453
101,845
99,154
96,391
93,564
90,683
87,758
84,798
81,812
78,809
75,798
72,788
69,787
66,805
63,851
60,931
58,056
55,232
52,468
49,77
47,145
44,6
42,14
39,77
37,496
35,32
33,247
31,28
29,42
27,67
26,031
24,504
23,089
21,787
20,598
19,521
18,555
17,7
16,953
16,314
15,779
15,347
15,014
14,777
14,632
14,575
14,603
14,709
14,89
15,14
15,453
15,823
16,245
16,713
17,222
17,765
18,337
18,933
19,549
20,179
20,821
21,469
22,12
22,77
23,415
24,053
24,68
25,292
25,886
26,458
27,006
27,527
28,016
28,472
28,892
29,274
29,616
29,916
30,172
30,385
30,552
30,675
30,753
30,787
30,778
30,727
30,634
30,502
30,33
30,119
29,87
29,582
29,257
28,893
28,492
28,052
27,574
27,058
26,505
25,915
25,291
24,635
23,949
23,236
22,5
21,743
20,97
20,184
19,388
18,585
17,779
16,971
16,166
15,368
14,581
13,807
13,052
12,317
11,607
10,926
10,277
9,663
9,087
8,554
8,071
7,648
7,292
7,007
6,791
6,644
6,56
6,534
6,555
6,603
6,663
6,721
6,768
6,803
6,822
6,814
6,767
6,662
6,493
6,266
5,993
5,688
5,374
5,082
4,856
4,762
4,852
5,163
5,715
6,512
7,559
8,875
10,482
12,4
14,633
17,161
19,956
22,989
26,21
29,555
32,935
36,229
39,333
42,177
44,715
46,918
48,754
50,159
51,038
51,313
50,913
49,806
47,99
45,438
42,141
38,133
33,454
28,181
22,403
16,083
9,123
1,584
-6,431
-14,669
-22,556
-29,585
-35,35
-39,222
-40,684
-39,777
-36,633
-31,784
-26,823
-23,265
-22,194
-25,147
-32,012
-40,253
-49,264
-58,553
-67,463
-78,287
-87,033
-83,994
-61,911
-14,076
57,973
142,736
232,925
325,249
416,524
505,718
581,98
626,552
629,591
588,027
510,168
413,165
305,278
192,496
81,807
-19,369
-97,176
-142,163
-156,266
-149,994
-136,862
-125,734
-117,839
-108,747
-96,039
-81,173
-66,969
-57,089
-52,768
-52,686
-55,383
-59,334
-62,94
-65,035
-64,981
-62,542
-58,073
-52,277
-45,737
-38,939
-32,448
-26,782
-22,256
-19,03
-17,068
-16,201
-16,299
-17,242
-18,892
-21,11
-23,772
-26,764
-29,985
-33,344
-36,756
-40,15
-43,464
-46,643
-49,621
-52,322
-54,686
-56,663
-58,226
-59,373
-60,098
-60,406
-60,32
-59,871
-59,105
-58,076
-56,823
-55,369
-53,741
-51,965
-50,081
-48,142
-46,188
-44,248
-42,347
-40,499
-38,716
-37,012
-35,386
-33,827
-32,326
-30,866
-29,442
-28,052
-26,691
-25,351
-24,022
-22,685
-21,327
-19,943
-18,526
-17,072
-15,578
-14,043
-12,469
-10,864
-9,234
-7,585
-5,921
-4,245
-2,562
-0,877
0,803
2,471
4,119
5,742
7,332
8,881
10,382
11,826
13,207
14,517
15,749
16,894
17,944
18,89
19,724
20,437
21,021
21,469
21,774
21,929
21,93
21,771
21,448
20,957
20,294
19,459
18,448
17,262
15,899
14,361
12,649
10,765
8,712
6,495
4,117
1,585
-1,096
-3,917
-6,871
-9,948
-13,139
-16,433
-19,819
-23,285
-26,819
-30,409
-34,044
-37,709
-41,395
-45,088
-48,778
-52,451
-56,099
-59,709
-63,271
-66,776
-70,213
-73,575
-76,851
-80,034
-83,117
-86,091
-88,952
-91,691
-94,305
-96,788
-99,137
-101,347
-103,416
-105,343
-107,126
-108,765
-110,26
-111,612
-112,824
-113,896
-114,831
-115,634
-116,305
-116,849
-117,27
-117,572
-117,757
-117,83
-117,795
-117,657
-117,418
-117,084
-116,659
-116,147
-115,552
-114,879
-114,133
-113,319
-112,441
-111,504
-110,512
-109,471
-108,386
-107,26
-106,099
-104,907
-103,689
-102,449
-101,192
-99,922
-98,643
-97,36
-96,078
-94,801
-93,533
-92,279
-91,043
-89,83
-88,645
-87,492
-86,375
-85,298
-84,266
-83,283
-82,352
-81,477
-80,66
-79,905
-79,213
-78,587
-78,028
-77,538
-77,118
-76,769
-76,49
-76,282
-76,143
-76,073
-76,071
-76,132
-76,256
-76,438
-76,674
-76,96
-77,289
-77,655
-78,052
-78,473
-78,911
-79,359
-79,809
-80,255
-80,69
-81,107
-81,5
-81,86
-82,181
-82,455
-82,676
-82,837
-82,932
-82,955
-82,9
-82,76
-82,534
-82,218
-81,809
-81,3
-80,685
-79,962
-79,132
-78,202
-77,177
-76,066
-74,878
-73,629
-72,341
-71,034
-69,725
-68,426
-67,144
-65,89
-64,68
-63,533
-62,465
-61,479
-60,569
-59,726
-58,941
-58,201
-57,485
-56,754
-55,957
-55,058
-54,031
-52,861
-51,536
-50,031
-48,316
-46,361
-44,15
-41,689
-38,995
-36,084
-32,975
-29,691
-26,279
-22,818
-19,398
-16,087
-12,944
-10,028
-7,405
-5,178
-3,446
-2,279
-1,745
-1,895
-2,789
-4,503
-7,098
-10,604
-15,046
-20,459
-26,8
-33,938
-41,614
-49,398
-56,843
-63,569
-69,176
-73,179
-75,292
-75,615
-74,633
-73,296
-72,613
-73,187
-75,508
-80,257
-87,689
-97,201
-107,377
-115,766
-119,565
-116,754
-105,426
-83,114
-47,846
1,369
63,108
132,817
205,326
275,81
343,763
412,372
481,528
549,654
606,269
631,49
612,277
539,766
417,892
270,515
122,099
-1,889
-82,04
-118,873
-120,982
-104,062
-86,293
-74,679
-70,011
-68,565
-64,143
-56,327
-47,499
-40,253
-37,546
-39,426
-44,112
-50,164
-55,808
-59,64
-61,28
-60,611
-57,797
-53,414
-48,04
-42,182
-36,44
-31,376
-27,247
-24,129
-21,978
-20,616
-19,917
-19,803
-20,143
-20,789
-21,619
-22,533
-23,447
-24,315
-25,065
-25,603
-25,878
-25,862
-25,569
-25,053
-24,348
-23,472
-22,428
-21,207
-19,81
-18,258
-16,569
-14,767
-12,876
-10,921
-8,934
-6,957
-5,013
-3,107
-1,22
0,689
2,648
4,662
6,728
8,825
10,936
13,057
15,178
17,289
19,383
21,454
23,507
25,559
27,615
29,675
31,728
33,756
35,748
37,703
39,625
41,526
43,413
45,29
47,163
49,041
50,928
52,824
54,726
56,623
58,509
60,378
62,228
64,058
65,864
67,64
69,379
71,071
72,706
74,275
75,767
77,171
78,479
79,682
80,776
81,754
82,616
83,356
83,967
84,443
84,772
84,944
84,957
84,808
84,501
84,042
83,439
82,698
81,834
80,853
79,76
78,554
77,223
75,755
74,147
72,402
70,53
68,543
66,442
64,223
61,885
59,413
56,796
54,022
51,06
47,896
44,532
40,985
37,294
33,51
29,669
25,796
21,91
18,026
14,169
10,366
6,641
3,024
-0,451
-3,745
-6,797
-9,563
-12,026
-14,187
-16,081
-17,757
-19,247
-20,578
-21,772
-22,845
-23,818
-24,712
-25,534
-26,299
-27,026
-27,744
-28,499
-29,331
-30,252
-31,262
-32,339
-33,446
-34,559
-35,66
-36,726
-37,743
-38,701
-39,59
-40,414
-41,177
-41,877
-42,503
-43,039
-43,467
-43,781
-43,984
-44,084
-44,097
-44,034
-43,904
-43,72
-43,491
-43,219
-42,91
-42,558
-42,157
-41,707
-41,208
-40,663
-40,08
-39,461
-38,809
-38,127
-37,418
-36,683
-35,926
-35,148
-34,351
-33,539
-32,716
-31,888
-31,063
-30,245
-29,44
-28,652
-27,887
-27,147
-26,436
-25,757
-25,111
-24,501
-23,929
-23,4
-22,915
-22,478
-22,092
-21,759
-21,483
-21,264
-21,105
-21,006
-20,968
-20,988
-21,066
-21,198
-21,382
-21,612
-21,884
-22,193
-22,533
-22,899
-23,285
-23,686
-24,097
-24,512
-24,927
-25,337
-25,736
-26,12
-26,483
-26,823
-27,135
-27,416
-27,66
-27,864
-28,026
-28,142
-28,208
-28,218
-28,163
-28,037
-27,842
-27,578
-27,25
-26,864
-26,428
-25,955
-25,465
-24,975
-24,503
-24,062
-23,655
-23,295
-22,994
-22,768
-22,636
-22,603
-22,662
-22,802
-23,006
-23,256
-23,525
-23,769
-23,926
-23,947
-23,794
-23,438
-22,861
-22,032
-20,913
-19,467
-17,664
-15,494
-12,97
-10,109
-6,929
-3,462
0,244
4,105
8,011
11,872
15,618
19,18
22,469
25,367
27,743
29,485
30,514
30,763
30,15
28,602
26,06
22,487
17,918
12,352
5,715
-1,936
-10,432
-19,48
-28,554
-37,174
-44,987
-51,413
-55,774
-57,886
-57,9
-56,437
-54,658
-53,474
-53,697
-56,549
-63,102
-72,371
-81,718
-88,27
-89,266
-85,894
-81,28
-74,163
-60,286
-31,8
20,571
98,398
198,472
314,975
435,744
548,743
639,161
689,851
694,603
654,674
579,782
486,218
381,493
270,329
158,856
53,852
-31,561
-86,999
-112,645
-117,243
-112,597
-107,238
-103,048
-96,111
-84,546
-70,306
-56,451
-46,939
-43,394
-44,688
-49,336
-55,797
-62,329
-67,449
-70,325
-70,551
-68,308
-64,275
-59,085
-53,286
-47,559
-42,57
-38,68
-36,05
-34,631
-34,188
-34,549
-35,577
-37,091
-38,911
-40,887
-42,898
-44,851
-46,676
-48,283
-49,57
-50,464
-50,923
-50,928
-50,485
-49,611
-48,327
-46,668
-44,68
-42,406
-39,887
-37,166
-34,28
-31,278
-28,206
-25,113
-22,044
-19,031
-16,097
-13,258
-10,52
-7,881
-5,336
-2,875
-0,483
1,848
4,128
6,365
8,566
10,74
12,892
15,029
17,155
19,278
21,403
23,539
25,69
27,857
30,039
32,236
34,441
36,649
38,847
41,013
43,133
45,198
47,205
49,157
51,059
52,911
54,717
56,482
58,211
59,915
61,598
63,257
64,898
66,533
68,186
69,904
71,714
73,629
75,658
77,795
80,033
82,36
84,745
87,142
89,502
91,774
93,917
95,9
97,684
99,226
100,47
101,341
101,781
101,753
101,223
100,16
98,55
96,379
93,669
90,483
86,881
82,935
78,712
74,275
69,688
65,018
60,332
55,705
51,203
46,874
42,775
38,961
35,482
32,386
29,689
27,367
25,391
23,718
22,3
21,082
20,014
19,048
18,146
17,277
16,414
15,535
14,615
13,623
12,528
11,293
9,901
8,352
6,655
4,833
2,918
0,95
-1,036
-3,006
-4,94
-6,828
-8,662
-10,438
-12,149
-13,791
-15,354
-16,822
-18,183
-19,429
-20,557
-21,571
-22,482
-23,305
-24,055
-24,744
-25,382
-25,97
-26,508
-26,997
-27,431
-27,808
-28,125
-28,384
-28,587
-28,74
-28,848
-28,911
-28,932
-28,911
-28,847
-28,741
-28,593
-28,402
-28,173
-27,906
-27,607
-27,281
-26,932
-26,564
-26,182
-25,789
-25,387
-24,978
-24,566
-24,15
-23,734
-23,32
-22,911
-22,51
-22,12
-21,745
-21,387
-21,05
-20,736
-20,447
-20,182
-19,942
-19,725
-19,529
-19,353
-19,193
-19,047
-18,915
-18,793
-18,685
-18,588
-18,503
-18,431
-18,374
-18,329
-18,297
-18,276
-18,26
-18,25
-18,245
-18,246
-18,258
-18,282
-18,317
-18,363
-18,416
-18,469
-18,51
-18,521
-18,482
-18,381
-18,211
-17,971
-17,671
-17,317
-16,919
-16,489
-16,032
-15,554
-15,064
-14,563
-14,053
-13,551
-13,083
-12,69
-12,426
-12,324
-12,411
-12,703
-13,201
-13,899
-14,778
-15,804
-16,944
-18,177
-19,48
-20,848
-22,278
-23,749
-25,222
-26,637
-27,908
-28,968
-29,762
-30,229
-30,329
-30,03
-29,321
-28,231
-26,793
-25,024
-22,936
-20,513
-17,728
-14,582
-11,088
-7,287
-3,25
0,955
5,266
9,597
13,859
17,968
21,847
25,462
28,778
31,739
34,265
36,247
37,585
38,185
37,958
36,814
34,687
31,51
27,248
21,879
15,319
7,579
-1,189
-10,731
-20,557
-30,1
-38,905
-46,431
-51,991
-55,246
-56,303
-55,687
-54,736
-54,945
-57,346
-63,04
-73,098
-87,689
-105,953
-126,071
-144,639
-157,592
-161,411
-152,43
-126,756
-82,875
-22,368
52,386
136,886
227,759
326,662
432,246
537,551
631,932
697,905
719,36
691,712
617,107
503,426
365,301
216,038
69,191
-57,173
-148,348
-197,814
-204,485
-176,432
-130,049
-77,598
-31,425
-4,113
3,235
-7,836
-31,344
-53,656
-68,811
-75,411
-74,533
-72,821
-72,865
-73,868
-75,098
-74,313
-70,906
-66,032
-60,493
-55,161
-50,698
-47,146
-44,471
-42,632
-41,42
-40,682
-40,343
-40,322
-40,546
-40,969
-41,526
-42,155
-42,803
-43,396
-43,848
-44,075
-44,016
-43,662
-43,033
-42,167
-41,132
-39,981
-38,748
-37,465
-36,134
-34,74
-33,287
-31,784
-30,248
-28,711
-27,198
-25,732
-24,338
-23,02
-21,764
-20,545
-19,314
-18,027
-16,661
-15,203
-13,661
-12,063
-10,423
-8,753
-7,068
-5,371
-3,665
-1,952
-0,224
1,528
3,302
5,09
6,877
8,643
10,383
12,097
13,793
15,483
17,177
18,879
20,599
22,339
24,099
25,875
27,655
29,426
31,176
32,902
34,596
36,251
37,856
39,396
40,856
42,226
43,497
44,656
45,699
46,62
47,424
48,123
48,727
49,237
49,649
49,953
50,139
50,198
50,121
49,897
49,514
48,957
48,219
47,297
46,176
44,838
43,252
41,37
39,164
36,626
33,755
30,568
27,089
23,346
19,379
15,246
10,996
6,673
2,314
-2,057
-6,402
-10,672
-14,805
-18,723
-22,368
-25,706
-28,712
-31,377
-33,706
-35,714
-37,44
-38,95
-40,29
-41,5
-42,609
-43,627
-44,579
-45,5
-46,431
-47,419
-48,505
-49,708
-51,049
-52,541
-54,181
-55,957
-57,835
-59,762
-61,697
-63,613
-65,49
-67,319
-69,087
-70,777
-72,373
-73,86
-75,224
-76,455
-77,543
-78,477
-79,253
-79,875
-80,357
-80,722
-80,987
-81,162
-81,253
-81,263
-81,195
-81,053
-80,837
-80,545
-80,176
-79,732
-79,216
-78,634
-77,99
-77,286
-76,522
-75,699
-74,818
-73,883
-72,897
-71,866
-70,794
-69,689
-68,558
-67,411
-66,258
-65,105
-63,96
-62,83
-61,721
-60,64
-59,592
-58,582
-57,614
-56,692
-55,82
-55,002
-54,239
-53,534
-52,887
-52,3
-51,773
-51,305
-50,896
-50,543
-50,244
-49,997
-49,798
-49,644
-49,531
-49,454
-49,408
-49,388
-49,387
-49,401
-49,422
-49,443
-49,457
-49,457
-49,436
-49,386
-49,301
-49,173
-48,996
-48,765
-48,473
-48,116
-47,691
-47,193
-46,62
-45,969
-45,239
-44,429
-43,539
-42,569
-41,52
-40,395
-39,194
-37,922
-36,581
-35,175
-33,71
-32,189
-30,621
-29,012
-27,37
-25,702
-24,019
-22,328
-20,639
-18,96
-17,298
-15,662
-14,06
-12,501
-10,993
-9,546
-8,167
-6,862
-5,638
-4,498
-3,444
-2,475
-1,59
-0,789
-0,075
0,544
1,064
1,477
1,777
1,961
2,032
1,995
1,867
1,66
1,391
1,076
0,725
0,35
-0,035
-0,413
-0,754
-1,032
-1,212
-1,261
-1,145
-0,85
-0,386
0,217
0,91
1,649
2,408
3,139
3,789
4,302
4,628
4,699
4,458
3,784
2,467
0,422
-2,335
-5,698
-9,328
-12,826
-15,861
-17,938
-18,451
-17,255
-14,496
-10,496
-6,428
-3,705
-3,433
-7,108
-15,044
-25,415
-36,497
-47,399
-59,4
-75,264
-94,306
-109,627
-107,565
-76,128
-12,845
76,178
175,143
271,481
363,913
451,135
532,547
601,35
640,053
637,596
591,561
506,502
395,08
269,923
141,598
23,475
-69,171
-126,847
-147,456
-139,592
-120,889
-103,423
-92,35
-86,473
-79,144
-68,713
-57,212
-46,989
-41,384
-40,768
-43,231
-47,393
-51,514
-53,993
-54,363
-52,446
-48,333
-42,666
-36,082
-29,077
-22,27
-16,294
-11,474
-7,966
-5,787
-4,772
-4,786
-5,709
-7,358
-9,516
-11,987
-14,606
-17,24
-19,792
-22,157
-24,236
-25,956
-27,272
-28,163
-28,612
-28,607
-28,128
-27,171
-25,761
-23,935
-21,752
-19,288
-16,612
-13,789
-10,892
-7,979
-5,093
-2,267
0,484
3,16
5,753
8,259
10,669
12,976
15,183
17,296
19,328
21,3
23,229
25,13
27,023
28,923
30,839
32,777
34,734
36,705
38,687
40,676
42,672
44,674
46,679
48,687
50,693
52,694
54,687
56,667
58,629
60,568
62,48
64,361
66,208
68,018
69,788
71,514
73,192
74,817
76,382
77,882
79,31
80,659
81,921
83,09
84,157
85,117
85,963
86,687
87,284
87,748
88,074
88,257
88,292
88,175
87,904
87,474
86,883
86,128
85,209
84,123
82,869
81,448
79,86
78,106
76,187
74,105
71,863
69,464
66,912
64,21
61,365
58,382
55,268
52,03
48,675
45,213
41,652
38,001
34,271
30,47
26,61
22,7
18,75
14,77
10,772
6,765
2,76
-1,234
-5,205
-9,145
-13,043
-16,89
-20,676
-24,392
-28,031
-31,582
-35,039
-38,393
-41,638
-44,767
-47,774
-50,653
-53,398
-56,007
-58,475
-60,8
-62,98
-65,012
-66,897
-68,634
-70,225
-71,669
-72,968
-74,126
-75,143
-76,024
-76,772
-77,391
-77,886
-78,261
-78,522
-78,674
-78,724
-78,676
-78,539
-78,318
-78,021
-77,653
-77,224
-76,738
-76,204
-75,629
-75,019
-74,382
-73,723
-73,05
-72,369
-71,685
-71,003
-70,33
-69,67
-69,028
-68,408
-67,814
-67,25
-66,72
-66,227
-65,774
-65,363
-64,996
-64,676
-64,401
-64,175
-63,995
-63,862
-63,774
-63,729
-63,724
-63,756
-63,823
-63,919
-64,041
-64,186
-64,349
-64,527
-64,715
-64,91
-65,105
-65,296
-65,476
-65,64
-65,782
-65,897
-65,979
-66,022
-66,019
-65,969
-65,867
-65,706
-65,481
-65,18
-64,798
-64,333
-63,787
-63,163
-62,47
-61,713
-60,908
-60,074
-59,229
-58,386
-57,555
-56,737
-55,939
-55,169
-54,443
-53,781
-53,193
-52,674
-52,218
-51,815
-51,445
-51,084
-50,695
-50,218
-49,609
-48,84
-47,9
-46,794
-45,522
-44,072
-42,423
-40,556
-38,464
-36,162
-33,67
-31,006
-28,208
-25,325
-22,435
-19,646
-17,045
-14,689
-12,611
-10,824
-9,354
-8,254
-7,607
-7,489
-7,965
-9,078
-10,845
-13,298
-16,472
-20,37
-24,972
-30,231
-36,067
-42,483
-49,58
-57,332
-65,592
-74,049
-82,121
-89,272
-95,15
-99,267
-101,08
-100,471
-97,617
-93,228
-88,777
-85,518
-84,272
-85,966
-91,238
-99,786
-110,613
-121,633
-129,509
-131,037
-123,404
-103,735
-69,473
-20,494
40,705
110,819
185,028
260,764
339,86
420,851
497,777
562,036
599,186
597,12
554,164
471,661
355,715
221,481
82,378
-44,078
-135,749
-185,044
-193,675
-172,993
-145,317
-123,163
-110,011
-104,099
-97,529
-87,838
-77,161
-67,735
-62,614
-62,086
-64,151
-67,196
-69,464
-69,588
-67,243
-62,431
-55,472
-47,096
-38,029
-28,854
-20,17
-12,519
-6,159
-1,214
2,308
4,561
5,684
5,799
5,076
3,678
1,736
-0,598
-3,181
-5,874
-8,501
-10,929
-13,073
-14,861
-16,251
-17,204
-17,665
-17,613
-17,053
-15,998
-14,476
-12,516
-10,144
-7,417
-4,41
-1,209
2,09
5,42
8,742
12,022
15,241
18,379
21,413
24,337
27,16
29,887
32,52
35,064
37,517
39,89
42,209
44,497
46,783
49,085
51,414
53,777
56,18
58,624
61,112
63,639
66,195
68,774
71,372
73,985
76,611
79,247
81,882
84,508
87,117
89,7
92,249
94,756
97,212
99,608
101,937
104,192
106,367
108,454
110,445
112,331
114,103
115,751
117,268
118,644
119,869
120,936
121,838
122,567
123,117
123,483
123,66
123,643
123,431
123,019
122,407
121,592
120,576
119,358
117,939
116,321
114,508
112,503
110,311
107,936
105,385
102,665
99,783
96,747
93,564
90,245
86,799
83,235
79,564
75,796
71,943
68,015
64,026
59,986
55,907
51,802
47,681
43,555
39,437
35,337
31,265
27,231
23,247
19,321
15,462
11,681
7,984
4,381
0,879
-2,516
-5,796
-8,957
-11,994
-14,901
-17,675
-20,313
-22,811
-25,168
-27,38
-29,446
-31,365
-33,137
-34,762
-36,241
-37,574
-38,765
-39,816
-40,73
-41,51
-42,161
-42,686
-43,091
-43,378
-43,555
-43,626
-43,599
-43,478
-43,272
-42,986
-42,629
-42,209
-41,732
-41,205
-40,635
-40,03
-39,395
-38,737
-38,061
-37,372
-36,676
-35,981
-35,293
-34,621
-33,97
-33,348
-32,761
-32,217
-31,719
-31,272
-30,877
-30,535
-30,247
-30,016
-29,845
-29,739
-29,702
-29,732
-29,83
-29,99
-30,203
-30,456
-30,729
-31,002
-31,26
-31,491
-31,69
-31,86
-32,002
-32,119
-32,214
-32,281
-32,312
-32,303
-32,251
-32,158
-32,041
-31,922
-31,843
-31,857
-32,009
-32,329
-32,839
-33,534
-34,396
-35,403
-36,517
-37,718
-38,991
-40,318
-41,678
-43,046
-44,376
-45,611
-46,669
-47,439
-47,805
-47,672
-46,968
-45,662
-43,76
-41,287
-38,291
-34,819
-30,916
-26,63
-22,02
-17,146
-12,069
-6,873
-1,668
3,398
8,144
12,407
16,058
19,012
21,229
22,7
23,433
23,455
22,809
21,539
19,694
17,306
14,372
10,901
6,93
2,54
-2,135
-6,964
-11,865
-16,794
-21,746
-26,743
-31,797
-36,98
-42,442
-48,235
-54,326
-60,513
-66,274
-71,081
-74,544
-76,212
-75,677
-72,922
-68,062
-61,656
-55,354
-50,685
-48,688
-50,76
-56,618
-65,136
-76,755
-89,835
-103,462
-117,09
-123,961
-118,43
-94,272
-45,001
24,255
106,12
193,35
276,151
355,202
434,871
512,234
584,052
639,798
660,95
640,412
576,157
470,545
341,069
202,847
71,774
-31,405
-99,636
-132,158
-135,557
-127,724
-118,942
-113,099
-110,153
-103,36
-91,196
-76,871
-63,223
-54,11
-50,728
-51,532
-55,173
-60,224
-65,058
-68,453
-69,761
-68,775
-65,819
-61,566
-56,591
-51,346
-46,391
-42,25
-39,153
-37,152
-36,114
-35,771
-35,932
-36,471
-37,232
-38,081
-38,926
-39,671
-40,248
-40,617
-40,703
-40,452
-39,854
-38,914
-37,682
-36,236
-34,633
-32,933
-31,198
-29,456
-27,729
-26,022
-24,313
-22,596
-20,883
-19,186
-17,53
-15,933
-14,385
-12,872
-11,364
-9,812
-8,178
-6,43
-4,532
-2,477
-0,268
2,078
4,518
7,019
9,562
12,132
14,723
17,337
19,964
22,599
25,235
27,856
30,448
32,999
35,49
37,915
40,273
42,568
44,815
47,031
49,223
51,396
53,551
55,687
57,8
59,885
61,932
63,933
65,877
67,757
69,569
71,31
72,979
74,571
76,075
77,484
78,788
79,976
81,038
81,954
82,7
83,252
83,597
83,729
83,651
83,363
82,865
82,162
81,259
80,171
78,913
77,494
75,924
74,218
72,401
70,518
68,628
66,786
65,032
63,398
61,901
60,555
59,366
58,317
57,376
56,498
55,64
54,774
53,874
52,896
51,782
50,459
48,838
46,843
44,412
41,475
37,984
33,904
29,22
23,96
18,183
11,956
5,347
-1,582
-8,766
-16,106
-23,487
-30,796
-37,913
-44,734
-51,155
-57,042
-62,277
-66,768
-70,445
-73,284
-75,292
-76,47
-76,831
-76,411
-75,253
-73,441
-71,084
-68,263
-65,065
-61,575
-57,882
-54,124
-50,442
-46,947
-43,741
-40,905
-38,496
-36,59
-35,241
-34,461
-34,258
-34,604
-35,45
-36,781
-38,577
-40,801
-43,424
-46,371
-49,539
-52,849
-56,212
-59,531
-62,73
-65,72
-68,427
-70,822
-72,877
-74,578
-75,929
-76,911
-77,508
-77,716
-77,52
-76,928
-75,986
-74,732
-73,225
-71,545
-69,75
-67,898
-66,044
-64,212
-62,425
-60,705
-59,059
-57,504
-56,058
-54,738
-53,573
-52,585
-51,768
-51,109
-50,58
-50,135
-49,742
-49,38
-49,018
-48,645
-48,247
-47,81
-47,333
-46,82
-46,268
-45,673
-45,028
-44,323
-43,569
-42,788
-42,004
-41,249
-40,542
-39,896
-39,329
-38,857
-38,494
-38,254
-38,135
-38,125
-38,207
-38,363
-38,57
-38,793
-38,985
-39,084
-39,039
-38,809
-38,365
-37,692
-36,773
-35,588
-34,117
-32,345
-30,271
-27,911
-25,291
-22,453
-19,452
-16,365
-13,291
-10,336
-7,59
-5,126
-2,998
-1,239
0,116
1,031
1,463
1,354
0,646
-0,705
-2,727
-5,414
-8,718
-12,583
-16,946
-21,735
-26,909
-32,433
-38,241
-44,349
-50,848
-57,679
-64,68
-71,498
-77,508
-82,174
-85,17
-86,051
-84,404
-80,282
-73,945
-66,267
-58,927
-53,26
-50,25
-50,945
-55,785
-64,223
-75,357
-87,079
-95,702
-97,913
-90,444
-69,588
-34,007
14,629
74,402
141,801
213,926
293,299
380,345
469,625
552,111
610,538
626,409
593,174
511,753
391,281
252,59
112,965
-11,277
-102,393
-156,569
-175,965
-168,73
-151,943
-134,569
-119,955
-108,243
-94,253
-77,727
-61,629
-48,264
-40,788
-39,604
-42,717
-48,544
-55,089
-60,434
-63,859
-65,033
-63,957
-61,211
-57,403
-53,036
-48,766
-45,245
-42,787
-41,503
-41,335
-42,035
-43,407
-45,302
-47,536
-49,934
-52,348
-54,664
-56,788
-58,657
-60,217
-61,414
-62,213
-62,594
-62,557
-62,113
-61,293
-60,135
-58,671
-56,94
-54,973
-52,802
-50,467
-48,015
-45,491
-42,942
-40,404
-37,901
-35,452
-33,071
-30,762
-28,525
-26,349
-24,222
-22,134
-20,08
-18,055
-16,057
-14,082
-12,121
-10,17
-8,223
-6,273
-4,316
-2,346
-0,356
1,655
3,689
5,747
7,826
9,924
12,041
14,173
16,32
18,481
20,658
22,856
25,077
27,322
29,585
31,86
34,134
36,39
38,609
40,769
42,852
44,845
46,74
48,537
50,239
51,85
53,366
54,78
56,084
57,269
58,332
59,267
60,081
60,79
61,419
62,001
62,564
63,127
63,694
64,254
64,783
65,242
65,597
65,817
65,874
65,741
65,395
64,825
64,005
62,907
61,486
59,688
57,461
54,763
51,571
47,876
43,7
39,094
34,116
28,835
23,323
17,656
11,896
6,093
0,3
-5,433
-11,045
-16,46
-21,605
-26,407
-30,804
-34,742
-38,194
-41,164
-43,673
-45,765
-47,494
-48,921
-50,098
-51,064
-51,852
-52,485
-52,992
-53,409
-53,772
-54,121
-54,496
-54,943
-55,491
-56,158
-56,941
-57,825
-58,78
-59,77
-60,766
-61,748
-62,704
-63,631
-64,528
-65,391
-66,221
-67,016
-67,766
-68,458
-69,078
-69,615
-70,07
-70,45
-70,77
-71,046
-71,291
-71,511
-71,711
-71,895
-72,061
-72,208
-72,332
-72,431
-72,513
-72,596
-72,694
-72,812
-72,953
-73,105
-73,259
-73,407
-73,537
-73,639
-73,698
-73,695
-73,621
-73,474
-73,241
-72,909
-72,448
-71,804
-70,944
-69,853
-68,523
-66,958
-65,166
-63,147
-60,924
-58,534
-56,013
-53,399
-50,715
-47,968
-45,182
-42,398
-39,677
-37,107
-34,755
-32,664
-30,877
-29,434
-28,372
-27,729
-27,511
-27,684
-28,231
-29,141
-30,421
-32,096
-34,161
-36,58
-39,296
-42,227
-45,295
-48,431
-51,546
-54,533
-57,289
-59,712
-61,734
-63,32
-64,417
-64,947
-64,815
-63,923
-62,203
-59,627
-56,191
-51,91
-46,826
-41,001
-34,53
-27,548
-20,181
-12,545
-4,741
3,139
10,982
18,642
25,954
32,761
38,921
44,321
48,875
52,515
55,214
56,984
57,867
57,928
57,22
55,757
53,554
50,631
47,03
42,839
38,154
33,05
27,601
21,87
15,904
9,749
3,392
-3,267
-10,28
-17,578
-24,929
-31,904
-38,056
-43,052
-46,543
-48,06
-47,305
-44,402
-39,949
-35,042
-30,883
-28,246
-27,724
-30,186
-36,131
-45,027
-55,354
-64,605
-69,853
-68,691
-58,865
-37,324
-1,109
49,758
112,182
182,31
255,379
331,223
414,558
503,767
592,388
667,37
707,818
702,035
648,385
552,784
431,842
301,16
174,263
65,475
-16,764
-68,359
-91,529
-97,152
-95,088
-91,363
-87,842
-80,611
-68,028
-52,617
-37,541
-26,805
-22,307
-23,002
-27,3
-33,585
-40,034
-45,06
-47,766
-47,675
-44,865
-39,953
-33,563
-26,254
-18,733
-11,714
-5,598
-0,579
3,356
6,397
8,671
10,263
11,28
11,838
12,018
11,855
11,391
10,648
9,682
8,583
7,412
6,208
5,004
3,815
2,645
1,516
0,443
-0,564
-1,46
-2,208
-2,776
-3,119
-3,224
-3,094
-2,732
-2,155
-1,38
-0,41
0,745
2,077
3,589
5,273
7,118
9,111
11,215
13,395
15,625
17,874
20,124
22,366
24,59
26,795
28,987
31,168
33,342
35,516
37,687
39,857
42,032
44,215
46,42
48,657
50,929
53,24
55,588
57,969
60,378
62,807
65,239
67,66
70,058
72,416
74,725
76,97
79,137
81,214
83,187
85,042
86,769
88,359
89,802
91,09
92,214
93,17
93,953
94,56
94,988
95,232
95,293
95,167
94,857
94,362
93,684
92,825
91,789
90,581
89,206
87,671
85,983
84,149
82,178
80,081
77,867
75,547
73,131
70,632
68,059
65,424
62,736
60,006
57,244
54,458
51,658
48,851
46,046
43,249
40,467
37,706
34,971
32,268
29,599
26,968
24,378
21,832
19,332
16,879
14,476
12,122
9,819
7,568
5,367
3,217
1,117
-0,934
-2,938
-4,896
-6,808
-8,677
-10,503
-12,286
-14,029
-15,73
-17,39
-19,009
-20,586
-22,12
-23,611
-25,057
-26,457
-27,808
-29,109
-30,358
-31,551
-32,688
-33,766
-34,783
-35,736
-36,626
-37,449
-38,206
-38,894
-39,514
-40,066
-40,548
-40,96
-41,304
-41,58
-41,787
-41,929
-42,005
-42,018
-41,971
-41,866
-41,706
-41,495
-41,237
-40,938
-40,601
-40,231
-39,835
-39,418
-38,985
-38,541
-38,094
-37,647
-37,207
-36,778
-36,365
-35,972
-35,604
-35,263
-34,954
-34,677
-34,437
-34,235
-34,073
-33,951
-33,87
-33,832
-33,835
-33,88
-33,965
-34,091
-34,255
-34,455
-34,688
-34,951
-35,24
-35,549
-35,873
-36,205
-36,541
-36,874
-37,198
-37,508
-37,798
-38,064
-38,301
-38,505
-38,672
-38,796
-38,873
-38,901
-38,875
-38,792
-38,649
-38,443
-38,172
-37,838
-37,441
-36,98
-36,454
-35,86
-35,2
-34,48
-33,705
-32,883
-32,024
-31,14
-30,249
-29,373
-28,53
-27,739
-27,014
-26,367
-25,811
-25,361
-25,024
-24,808
-24,713
-24,728
-24,842
-25,042
-25,303
-25,597
-25,892
-26,143
-26,319
-26,392
-26,329
-26,103
-25,682
-25,041
-24,169
-23,067
-21,74
-20,211
-18,507
-16,658
-14,719
-12,745
-10,79
-8,923
-7,192
-5,651
-4,387
-3,497
-3,076
-3,203
-3,911
-5,226
-7,197
-9,849
-13,191
-17,216
-21,858
-27,104
-33,05
-39,682
-46,879
-54,42
-61,869
-68,777
-74,79
-79,407
-81,995
-82,293
-80,436
-76,851
-72,501
-68,499
-65,886
-66,06
-70,465
-78,449
-87,553
-95,699
-100,756
-103,889
-108,446
-112,47
-110,161
-92,449
-49,104
22,39
117,623
229,526
348,367
463,382
563,766
635,719
665,514
647,902
583,964
481,991
358,839
228,646
106,597
9,239
-57,776
-92,721
-101,361
-99,601
-95,953
-94,182
-94,718
-91,074
-81,95
-70,659
-59,911
-53,533
-52,899
-56,435
-62,606
-69,991
-76,968
-82,284
-85,315
-85,772
-83,846
-80,191
-75,424
-70,064
-64,758
-60,105
-56,408
-53,811
-52,278
-51,614
-51,678
-52,358
-53,496
-54,944
-56,579
-58,299
-60,019
-61,67
-63,156
-64,372
-65,243
-65,721
-65,784
-65,433
-64,676
-63,531
-62,027
-60,207
-58,112
-55,779
-53,249
-50,556
-47,746
-44,868
-41,971
-39,101
-36,294
-33,575
-30,958
-28,454
-26,063
-23,782
-21,603
-19,512
-17,498
-15,553
-13,67
-11,839
-10,051
-8,296
-6,563
-4,845
-3,136
-1,426
0,293
2,033
3,8
5,594
7,417
9,269
11,146
13,042
14,947
16,839
18,706
20,542
22,346
24,125
25,884
27,624
29,349
31,062
32,768
34,474
36,183
37,892
39,609
41,347
43,135
45,015
47,012
49,131
51,368
53,703
56,109
58,561
61,016
63,419
65,724
67,886
69,871
71,66
73,219
74,501
75,452
75,996
76,082
75,687
74,793
73,403
71,532
69,205
66,472
63,41
60,078
56,529
52,804
48,927
44,936
40,882
36,819
32,811
28,91
25,152
21,566
18,179
15
12,027
9,24
6,596
4,065
1,63
-0,719
-2,981
-5,159
-7,265
-9,306
-11,293
-13,233
-15,13
-16,991
-18,824
-20,628
-22,398
-24,121
-25,774
-27,34
-28,814
-30,191
-31,474
-32,665
-33,766
-34,782
-35,724
-36,598
-37,411
-38,168
-38,869
-39,521
-40,128
-40,697
-41,237
-41,754
-42,252
-42,736
-43,208
-43,669
-44,122
-44,564
-44,993
-45,406
-45,802
-46,178
-46,534
-46,868
-47,177
-47,46
-47,715
-47,939
-48,129
-48,283
-48,397
-48,466
-48,487
-48,457
-48,372
-48,228
-48,024
-47,755
-47,422
-47,023
-46,556
-46,023
-45,423
-44,758
-44,029
-43,238
-42,388
-41,481
-40,521
-39,512
-38,459
-37,366
-36,238
-35,079
-33,894
-32,688
-31,464
-30,228
-28,983
-27,734
-26,484
-25,238
-24,002
-22,779
-21,575
-20,394
-19,242
-18,122
-17,039
-15,997
-14,998
-14,046
-13,144
-12,293
-11,496
-10,754
-10,068
-9,438
-8,865
-8,349
-7,889
-7,483
-7,131
-6,831
-6,582
-6,383
-6,233
-6,132
-6,079
-6,073
-6,116
-6,205
-6,342
-6,524
-6,751
-7,021
-7,333
-7,682
-8,066
-8,482
-8,928
-9,399
-9,892
-10,404
-10,931
-11,471
-12,02
-12,575
-13,13
-13,682
-14,225
-14,755
-15,268
-15,76
-16,224
-16,658
-17,058
-17,419
-17,738
-18,009
-18,223
-18,369
-18,438
-18,427
-18,333
-18,156
-17,901
-17,575
-17,191
-16,765
-16,314
-15,851
-15,385
-14,918
-14,454
-14,001
-13,57
-13,177
-12,834
-12,544
-12,306
-12,106
-11,924
-11,731
-11,482
-11,12
-10,593
-9,855
-8,879
-7,658
-6,186
-4,462
-2,472
-0,195
2,379
5,253
8,416
11,839
15,481
19,289
23,177
27,043
30,785
34,299
37,52
40,41
42,936
45,058
46,705
47,785
48,218
47,942
46,928
45,152
42,575
39,17
34,937
29,887
24,096
17,584
10,249
2,114
-6,688
-15,864
-24,794
-32,888
-39,755
-44,851
-47,627
-48,043
-46,308
-43,243
-40,545
-39,6
-41,385
-47,021
-57,073
-70,946
-87,492
-104,302
-117,319
-122,898
-117,805
-98,302
-62,767
-12,69
50,329
123,172
203,172
292,182
389,246
487,78
577,551
642,325
667,529
649,12
588,893
494,543
380,364
257,775
140,627
45,656
-19,997
-53,876
-61,889
-59,983
-57,218
-57,281
-59,927
-58,497
-51,357
-41,516
-31,67
-25,52
-24,418
-27,023
-32,058
-38,31
-44,337
-48,926
-51,448
-51,645
-49,702
-46,225
-41,766
-36,76
-31,796
-27,471
-24,105
-21,844
-20,656
-20,339
-20,753
-21,791
-23,301
-25,122
-27,121
-29,181
-31,209
-33,139
-34,884
-36,343
-37,448
-38,151
-38,431
-38,292
-37,747
-36,815
-35,527
-33,925
-32,049
-29,942
-27,645
-25,199
-22,65
-20,045
-17,43
-14,851
-12,341
-9,923
-7,61
-5,408
-3,316
-1,332
0,553
2,35
4,068
5,715
7,297
8,819
10,29
11,718
13,111
14,479
15,828
17,166
18,496
19,824
21,152
22,483
23,819
25,16
26,508
27,865
29,233
30,613
32,008
33,416
34,838
36,274
37,72
39,174
40,633
42,09
43,541
44,979
46,397
47,787
49,142
50,453
51,712
52,909
54,035
55,082
56,04
56,901
57,655
58,294
58,81
59,195
59,442
59,544
59,495
59,29
58,925
58,395
57,7
56,836
55,802
54,6
53,229
51,693
49,993
48,134
46,122
43,961
41,66
39,226
36,669
33,997
31,22
28,351
25,398
22,373
19,289
16,155
12,983
9,785
6,573
3,357
0,148
-3,043
-6,206
-9,331
-12,409
-15,432
-18,391
-21,28
-24,091
-26,821
-29,462
-32,011
-34,464
-36,817
-39,069
-41,218
-43,262
-45,202
-47,038
-48,771
-50,405
-51,94
-53,381
-54,73
-55,991
-57,168
-58,265
-59,287
-60,237
-61,121
-61,942
-62,707
-63,418
-64,082
-64,702
-65,282
-65,825
-66,337
-66,818
-67,274
-67,704
-68,113
-68,502
-68,873
-69,227
-69,566
-69,891
-70,202
-70,5
-70,785
-71,056
-71,314
-71,556
-71,783
-71,994
-72,187
-72,36
-72,514
-72,647
-72,758
-72,845
-72,908
-72,945
-72,955
-72,937
-72,891
-72,816
-72,711
-72,577
-72,414
-72,223
-72,004
-71,758
-71,487
-71,191
-70,873
-70,533
-70,173
-69,795
-69,401
-68,993
-68,573
-68,144
-67,707
-67,266
-66,823
-66,38
-65,939
-65,504
-65,076
-64,657
-64,251
-63,86
-63,487
-63,134
-62,805
-62,501
-62,225
-61,978
-61,763
-61,581
-61,434
-61,321
-61,243
-61,202
-61,196
-61,227
-61,294
-61,396
-61,535
-61,707
-61,914
-62,154
-62,424
-62,725
-63,054
-63,409
-63,789
-64,191
-64,614
-65,055
-65,511
-65,978
-66,454
-66,934
-67,412
-67,883
-68,342
-68,783
-69,201
-69,591
-69,948
-70,268
-70,547
-70,782
-70,968
-71,103
-71,181
-71,198
-71,152
-71,037
-70,851
-70,588
-70,246
-69,822
-69,316
-68,725
-68,051
-67,29
-66,44
-65,502
-64,478
-63,375
-62,198
-60,956
-59,659
-58,32
-56,96
-55,594
-54,239
-52,911
-51,621
-50,378
-49,192
-48,071
-47,022
-46,043
-45,124
-44,25
-43,408
-42,583
-41,755
-40,902
-39,992
-38,997
-37,897
-36,665
-35,275
-33,706
-31,94
-29,967
-27,789
-25,416
-22,875
-20,199
-17,422
-14,581
-11,717
-8,874
-6,104
-3,453
-0,97
1,267
3,166
4,635
5,6
6,016
5,851
5,058
3,602
1,463
-1,391
-4,942
-9,203
-14,271
-20,114
-26,59
-33,459
-40,217
-46,332
-51,45
-55,067
-56,59
-55,941
-53,322
-49,297
-45,217
-42,207
-40,956
-42,588
-48,044
-57,085
-68,786
-81,303
-91,417
-96,261
-93,403
-79,377
-50,801
-7,38
48,521
113,776
183,39
256,832
338,653
426,762
514,425
588,784
629,249
624,478
574,286
484,886
370,452
245,241
119,843
7,23
-79,301
-133,077
-151,751
-142,973
-121,203
-94,985
-72,543
-55,696
-42,032
-34,641
-31,448
-31,11
-34,13
-36,71
-39,605
-43,969
-48,469
-53,229
-56,733
-57,49
-55,876
-52,316
-47,48
-42,134
-36,712
-31,612
-27,126
-23,353
-20,212
-17,516
-15,148
-13,016
-11,031
-9,138
-7,272
-5,404
-3,567
-1,794
-0,105
1,481
2,975
4,374
5,65
6,78
7,733
8,485
9,031
9,365
9,478
9,386
9,111
8,686
8,178
7,636
7,105
6,638
6,266
6,019
5,937
6,044
6,362
6,911
7,696
8,718
9,985
11,484
13,196
15,093
17,125
19,252
21,446
23,672
25,912
28,148
30,363
32,55
34,712
36,848
38,959
41,051
43,123
45,178
47,227
49,281
51,357
53,467
55,618
57,812
60,052
62,335
64,656
67,007
69,373
71,742
74,101
76,439
78,745
81,007
83,213
85,349
87,402
89,36
91,211
92,946
94,553
96,025
97,351
98,525
99,541
100,394
101,077
101,585
101,912
102,054
102,007
101,768
101,334
100,702
99,873
98,845
97,62
96,201
94,588
92,787
90,8
88,633
86,293
83,784
81,114
78,291
75,323
72,218
68,987
65,638
62,182
58,629
54,991
51,278
47,502
43,675
39,807
35,912
31,999
28,082
24,172
20,28
16,417
12,595
8,825
5,116
1,481
-2,073
-5,535
-8,896
-12,148
-15,284
-18,296
-21,178
-23,923
-26,526
-28,982
-31,288
-33,44
-35,435
-37,272
-38,95
-40,469
-41,83
-43,032
-44,08
-44,975
-45,719
-46,318
-46,775
-47,094
-47,28
-47,339
-47,276
-47,096
-46,806
-46,412
-45,921
-45,338
-44,672
-43,927
-43,112
-42,233
-41,297
-40,311
-39,28
-38,212
-37,114
-35,991
-34,849
-33,694
-32,53
-31,364
-30,199
-29,039
-27,888
-26,749
-25,625
-24,519
-23,432
-22,368
-21,328
-20,314
-19,329
-18,374
-17,451
-16,562
-15,71
-14,895
-14,119
-13,384
-12,692
-12,044
-11,441
-10,885
-10,376
-9,916
-9,505
-9,144
-8,833
-8,572
-8,362
-8,203
-8,095
-8,038
-8,031
-8,075
-8,17
-8,316
-8,513
-8,759
-9,055
-9,398
-9,787
-10,221
-10,694
-11,204
-11,745
-12,314
-12,906
-13,514
-14,134
-14,759
-15,385
-16,007
-16,617
-17,21
-17,777
-18,312
-18,808
-19,259
-19,658
-19,998
-20,272
-20,473
-20,6
-20,646
-20,606
-20,474
-20,239
-19,897
-19,447
-18,892
-18,235
-17,482
-16,64
-15,724
-14,754
-13,751
-12,729
-11,7
-10,67
-9,652
-8,662
-7,72
-6,845
-6,043
-5,308
-4,635
-4,012
-3,421
-2,838
-2,22
-1,514
-0,677
0,316
1,481
2,822
4,358
6,119
8,131
10,41
12,947
15,718
18,693
21,84
25,108
28,427
31,706
34,836
37,733
40,343
42,619
44,522
45,991
46,924
47,231
46,844
45,723
43,869
41,277
37,925
33,817
28,982
23,461
17,35
10,682
3,378
-4,509
-12,811
-21,243
-29,255
-36,316
-42,113
-46,19
-47,994
-47,465
-44,83
-40,689
-36,414
-33,141
-31,524
-32,569
-37,146
-45,014
-55,257
-66,117
-74,517
-77,661
-73,235
-58,155
-29,339
13,594
68,378
132,127
200,421
271,755
349,647
433,315
516,586
589,711
635,804
640,553
601,418
520,693
407,112
278,283
148,216
31,912
-53,097
-102,299
-117,819
-108,258
-91,096
-75,879
-65,549
-59,579
-52,488
-43,29
-34,421
-27,949
-26,51
-30,204
-37,051
-45,402
-53,37
-59,359
-62,806
-63,479
-61,485
-57,391
-51,797
-45,267
-38,462
-31,987
-26,156
-21,111
-16,851
-13,253
-10,245
-7,781
-5,799
-4,235
-3,053
-2,258
-1,855
-1,844
-2,191
-2,829
-3,683
-4,705
-5,858
-7,11
-8,442
-9,818
-11,195
-12,54
-13,8
-14,926
-15,88
-16,61
-17,084
-17,291
-17,227
-16,903
-16,343
-15,557
-14,558
-13,36
-11,97
-10,403
-8,68
-6,824
-4,874
-2,862
-0,815
1,237
3,273
5,282
7,255
9,193
11,104
12,993
14,868
16,737
18,604
20,477
22,367
24,286
26,248
28,268
30,354
32,511
34,742
37,048
39,426
41,871
44,37
46,912
49,487
52,082
54,686
57,286
59,867
62,415
64,913
67,344
69,696
71,954
74,103
76,131
78,024
79,77
81,361
82,784
84,029
85,087
85,947
86,601
87,041
87,26
87,252
87,011
86,533
85,815
84,857
83,656
82,214
80,533
78,614
76,464
74,087
71,491
68,684
65,676
62,477
59,098
55,552
51,852
48,012
44,045
39,965
35,789
31,53
27,203
22,824
18,408
13,97
9,524
5,085
0,667
-3,717
-8,053
-12,328
-16,529
-20,645
-24,664
-28,575
-32,368
-36,035
-39,567
-42,956
-46,196
-49,282
-52,209
-54,973
-57,573
-60,005
-62,27
-64,367
-66,297
-68,061
-69,662
-71,101
-72,383
-73,511
-74,488
-75,319
-76,009
-76,561
-76,982
-77,277
-77,45
-77,509
-77,458
-77,304
-77,054
-76,714
-76,291
-75,791
-75,221
-74,587
-73,896
-73,153
-72,363
-71,533
-70,667
-69,77
-68,846
-67,9
-66,934
-65,953
-64,96
-63,956
-62,946
-61,931
-60,913
-59,895
-58,879
-57,866
-56,858
-55,858
-54,865
-53,882
-52,909
-51,947
-50,997
-50,057
-49,128
-48,21
-47,302
-46,403
-45,513
-44,631
-43,757
-42,891
-42,032
-41,181
-40,338
-39,503
-38,676
-37,858
-37,051
-36,255
-35,471
-34,7
-33,944
-33,204
-32,481
-31,777
-31,092
-30,427
-29,783
-29,162
-28,564
-27,992
-27,446
-26,927
-26,439
-25,982
-25,558
-25,17
-24,819
-24,506
-24,232
-23,998
-23,804
-23,648
-23,531
-23,45
-23,404
-23,391
-23,408
-23,454
-23,526
-23,62
-23,733
-23,861
-23,998
-24,14
-24,281
-24,418
-24,544
-24,657
-24,749
-24,817
-24,856
-24,863
-24,833
-24,757
-24,626
-24,434
-24,179
-23,861
-23,483
-23,049
-22,563
-22,034
-21,479
-20,909
-20,337
-19,77
-19,208
-18,66
-18,139
-17,659
-17,242
-16,896
-16,614
-16,391
-16,215
-16,068
-15,931
-15,77
-15,529
-15,171
-14,67
-14,009
-13,185
-12,179
-10,954
-9,479
-7,72
-5,665
-3,328
-0,725
2,128
5,189
8,416
11,737
15,037
18,24
21,287
24,121
26,702
28,943
30,72
31,923
32,455
32,253
31,282
29,48
26,782
23,159
18,574
13,073
6,713
-0,562
-8,699
-17,526
-26,769
-35,878
-44,279
-51,598
-57,35
-60,973
-62,369
-61,689
-59,494
-57,092
-55,555
-55,51
-57,827
-63,157
-71,176
-80,981
-90,704
-97,212
-97,871
-90,451
-72,244
-41,032
4,234
62,385
129,674
201,565
273,402
343,996
415,037
483,672
546,116
594,009
611,608
592,044
533,071
436,76
319,663
196,459
81,297
-8,401
-67,731
-97,136
-102,467
-98,623
-93,952
-91,425
-90,588
-85,682
-75,673
-63,533
-51,983
-44,415
-41,716
-42,442
-45,538
-49,915
-54,216
-57,383
-58,772
-58,129
-55,765
-52,316
-48,264
-43,987
-39,982
-36,729
-34,506
-33,423
-33,383
-34,152
-35,549
-37,434
-39,652
-42,051
-44,487
-46,834
-48,993
-50,891
-52,465
-53,667
-54,468
-54,853
-54,829
-54,425
-53,673
-52,616
-51,292
-49,737
-47,982
-46,06
-44,009
-41,866
-39,674
-37,482
-35,33
-33,262
-31,305
-29,474
-27,77
-26,179
-24,69
-23,296
-21,997
-20,796
-19,699
-18,71
-17,84
-17,111
-16,528
-16,077
-15,73
-15,432
-15,143
-14,841
-14,508
-14,139
-13,722
-13,233
-12,652
-11,963
-11,143
-10,172
-9,014
-7,611
-5,938
-3,99
-1,791
0,602
3,15
5,83
8,615
11,485
14,419
17,383
20,355
23,324
26,269
29,163
31,962
34,607
37,057
39,296
41,323
43,16
44,818
46,294
47,592
48,715
49,663
50,44
51,037
51,437
51,631
51,617
51,402
51,006
50,437
49,694
48,774
47,664
46,358
44,856
43,156
41,254
39,153
36,857
34,378
31,734
28,941
26,012
22,958
19,788
16,515
13,154
9,72
6,228
2,696
-0,863
-4,432
-7,995
-11,535
-15,04
-18,499
-21,901
-25,237
-28,498
-31,675
-34,76
-37,746
-40,627
-43,398
-46,052
-48,587
-50,999
-53,286
-55,448
-57,484
-59,394
-61,18
-62,844
-64,386
-65,811
-67,122
-68,321
-69,413
-70,402
-71,293
-72,091
-72,801
-73,427
-73,975
-74,449
-74,855
-75,198
-75,482
-75,713
-75,893
-76,029
-76,123
-76,178
-76,198
-76,186
-76,143
-76,072
-75,975
-75,854
-75,708
-75,541
-75,352
-75,143
-74,915
-74,668
-74,404
-74,124
-73,827
-73,515
-73,19
-72,851
-72,499
-72,136
-71,762
-71,378
-70,984
-70,582
-70,173
-69,755
-69,33
-68,899
-68,461
-68,016
-67,567
-67,112
-66,653
-66,19
-65,726
-65,261
-64,796
-64,333
-63,873
-63,417
-62,967
-62,524
-62,087
-61,658
-61,236
-60,822
-60,416
-60,017
-59,623
-59,235
-58,852
-58,472
-58,095
-57,718
-57,342
-56,966
-56,588
-56,21
-55,831
-55,451
-55,07
-54,689
-54,309
-53,93
-53,551
-53,173
-52,796
-52,419
-52,042
-51,662
-51,278
-50,888
-50,493
-50,089
-49,677
-49,255
-48,824
-48,383
-47,934
-47,475
-47,008
-46,531
-46,044
-45,548
-45,041
-44,524
-43,995
-43,453
-42,897
-42,327
-41,741
-41,137
-40,512
-39,856
-39,168
-38,449
-37,702
-36,931
-36,144
-35,347
-34,552
-33,777
-33,037
-32,342
-31,698
-31,105
-30,569
-30,099
-29,705
-29,398
-29,176
-29,026
-28,932
-28,875
-28,829
-28,766
-28,641
-28,4
-28,005
-27,432
-26,667
-25,706
-24,53
-23,113
-21,433
-19,475
-17,244
-14,76
-12,045
-9,126
-6,044
-2,852
0,372
3,541
6,596
9,498
12,211
14,687
16,857
18,63
19,933
20,73
20,984
20,651
19,676
18,009
15,613
12,508
8,709
4,147
-1,176
-7,155
-13,558
-19,904
-25,681
-30,515
-33,99
-35,594
-35,149
-32,836
-29,207
-25,565
-23,264
-23,206
-26,358
-33,574
-44,801
-59,122
-74,856
-88,964
-97,93
-98,778
-88,263
-63,055
-22,319
32,005
97,508
170,024
246,789
329,941
418,48
506,303
584,561
637,501
650,113
618,483
543,653
432,84
303,211
169,108
46,524
-45,068
-99,288
-116,608
-105,452
-84,73
-65,324
-51,524
-43,179
-33,861
-22,167
-10,452
-0,869
3,255
1,424
-4,343
-12,458
-20,959
-28,037
-33,068
-35,775
-36,164
-34,794
-32,286
-29,139
-25,975
-23,415
-21,734
-21,033
-21,285
-22,27
-23,82
-25,81
-28,053
-30,38
-32,667
-34,8
-36,693
-38,276
-39,434
-40,068
-40,116
-39,535
-38,333
-36,535
-34,165
-31,271
-27,913
-24,168
-20,133
-15,89
-11,505
-7,056
-2,622
1,7
5,785
9,541
12,895
15,799
18,238
20,208
21,705
22,761
23,424
23,757
23,848
23,762
23,543
23,24
22,897
22,573
22,347
22,283
22,424
22,807
23,448
24,359
25,556
27,024
28,73
30,624
32,635
34,71
36,821
38,946
41,073
43,184
45,255
47,272
49,232
51,142
53,011
54,844
56,638
58,405
60,173
61,989
63,917
66,007
68,279
70,739
73,372
76,165
79,095
82,126
85,206
88,266
91,246
94,099
96,792
99,288
101,534
103,463
104,989
106,046
106,59
106,601
106,071
104,998
103,396
101,301
98,77
95,884
92,706
89,285
85,656
81,853
77,92
73,919
69,917
65,968
62,11
58,372
54,779
51,351
48,098
45,008
42,049
39,179
36,368
33,6
30,87
28,174
25,504
22,846
20,187
17,523
14,853
12,177
9,494
6,8
4,1
1,41
-1,248
-3,846
-6,366
-8,796
-11,128
-13,358
-15,481
-17,493
-19,393
-21,185
-22,873
-24,458
-25,939
-27,315
-28,588
-29,761
-30,842
-31,836
-32,748
-33,584
-34,346
-35,039
-35,666
-36,228
-36,727
-37,164
-37,538
-37,851
-38,107
-38,309
-38,46
-38,564
-38,623
-38,641
-38,623
-38,571
-38,487
-38,374
-38,234
-38,067
-37,877
-37,666
-37,436
-37,19
-36,931
-36,661
-36,385
-36,105
-35,824
-35,543
-35,26
-34,977
-34,692
-34,404
-34,112
-33,813
-33,506
-33,192
-32,873
-32,551
-32,225
-31,892
-31,547
-31,187
-30,815
-30,429
-30,029
-29,618
-29,201
-28,791
-28,408
-28,065
-27,769
-27,521
-27,314
-27,145
-27,011
-26,907
-26,826
-26,757
-26,69
-26,62
-26,547
-26,464
-26,353
-26,179
-25,892
-25,456
-24,852
-24,069
-23,102
-21,951
-20,622
-19,136
-17,535
-15,856
-14,129
-12,377
-10,609
-8,852
-7,146
-5,557
-4,168
-3,046
-2,249
-1,824
-1,814
-2,254
-3,154
-4,492
-6,218
-8,284
-10,654
-13,299
-16,195
-19,311
-22,599
-25,991
-29,4
-32,742
-35,92
-38,846
-41,435
-43,607
-45,316
-46,544
-47,296
-47,586
-47,419
-46,79
-45,691
-44,111
-42,028
-39,447
-36,386
-32,875
-28,972
-24,726
-20,191
-15,431
-10,488
-5,393
-0,164
5,195
10,679
16,26
21,892
27,508
33,012
38,321
43,363
48,065
52,375
56,225
59,561
62,343
64,535
66,092
66,941
66,976
66,097
64,225
61,325
57,419
52,541
46,707
39,962
32,368
24,01
15,03
5,486
-4,656
-15,308
-26,263
-37,181
-47,529
-56,834
-64,738
-70,684
-74,047
-74,612
-72,467
-68,1
-62,444
-56,345
-50,649
-46,594
-45,369
-46,08
-46,19
-43,438
-35,911
-25,762
-17,423
-9,953
1,817
26,989
76,358
152,061
248,333
356,789
466,315
566,645
649,917
705,987
724,04
700,142
634,244
531,78
407,816
275,825
151,247
51,918
-16,156
-52,16
-62,912
-65,111
-67,448
-72,823
-80,566
-83,604
-80,266
-73,754
-66,78
-62,992
-63,627
-67,156
-72,197
-77,519
-81,662
-83,454
-82,336
-78,099
-71,008
-61,777
-51,053
-39,391
-27,52
-16,143
-5,68
3,592
11,588
18,366
23,922
28,256
31,431
33,527
34,636
34,846
34,232
32,89
30,943
28,539
25,827
22,911
19,869
16,777
13,704
10,725
7,912
5,301
2,913
0,774
-1,113
-2,767
-4,223
-5,539
-6,773
-7,964
-9,141
-10,306
-11,432
-12,489
-13,433
-14,213
-14,782
-15,089
-15,081
-14,723
-13,977
-12,78
-11,058
-8,736
-5,755
-2,091
2,253
7,251
12,852
18,965
25,474
32,237
39,108
45,961
52,684
59,187
65,383
71,164
76,411
81,019
84,894
87,973
90,223
91,61
92,132
91,837
90,81
89,183
87,109
84,705
82,07
79,288
76,432
73,595
70,875
68,348
66,088
64,153
62,588
61,463
60,828
60,692
61,04
61,799
62,858
64,136
65,559
67,056
68,567
70,006
71,285
72,349
73,143
73,623
73,752
73,456
72,666
71,332
69,405
66,89
63,831
60,256
56,202
51,72
46,849
41,676
36,299
30,779
25,173
19,523
13,859
8,242
2,736
-2,598
-7,69
-12,498
-17,012
-21,202
-25,053
-28,562
-31,722
-34,576
-37,194
-39,616
-41,872
-43,982
-45,943
-47,776
-49,508
-51,156
-52,744
-54,287
-55,788
-57,267
-58,746
-60,239
-61,761
-63,297
-64,806
-66,267
-67,665
-68,992
-70,252
-71,442
-72,549
-73,576
-74,529
-75,413
-76,235
-76,99
-77,666
-78,261
-78,768
-79,193
-79,55
-79,843
-80,075
-80,254
-80,381
-80,463
-80,51
-80,525
-80,509
-80,478
-80,44
-80,408
-80,4
-80,416
-80,459
-80,53
-80,628
-80,751
-80,893
-81,035
-81,153
-81,237
-81,264
-81,212
-81,053
-80,737
-80,221
-79,47
-78,447
-77,133
-75,518
-73,593
-71,363
-68,859
-66,118
-63,202
-60,184
-57,116
-54,065
-51,108
-48,32
-45,8
-43,638
-41,904
-40,675
-40,02
-39,989
-40,62
-41,923
-43,86
-46,377
-49,399
-52,82
-56,55
-60,485
-64,499
-68,482
-72,321
-75,906
-79,152
-81,963
-84,23
-85,872
-86,825
-87,049
-86,558
-85,376
-83,543
-81,141
-78,248
-74,958
-71,39
-67,636
-63,771
-59,875
-56,004
-52,224
-48,62
-45,256
-42,18
-39,432
-37,023
-34,959
-33,247
-31,86
-30,761
-29,904
-29,228
-28,69
-28,269
-27,944
-27,708
-27,553
-27,458
-27,417
-27,435
-27,51
-27,64
-27,816
-28,013
-28,221
-28,44
-28,67
-28,926
-29,206
-29,496
-29,784
-30,043
-30,252
-30,394
-30,441
-30,361
-30,137
-29,776
-29,329
-28,88
-28,504
-28,26
-28,19
-28,345
-28,797
-29,606
-30,834
-32,522
-34,685
-37,416
-40,866
-45,067
-49,973
-55,39
-60,882
-66,056
-70,572
-73,88
-75,474
-75,263
-73,219
-69,711
-65,86
-62,606
-60,932
-62,399
-66,766
-71,727
-75,918
-77,194
-76,198
-78,4
-83,87
-89,242
-86,795
-61,515
-6,509
77,754
186,368
304,419
418,134
514,878
579,696
604,98
588,263
532,606
448,218
343,645
227,375
108,725
-1,179
-87,597
-141,355
-159,912
-151,613
-131,694
-109,204
-92,08
-80,869
-72,025
-68,242
-67,252
-67,784
-70,576
-71,933
-72,79
-74,697
-76,707
-79,181
-80,746
-79,974
-77,248
-73,03
-68,024
-62,952
-58,165
-54,037
-50,851
-48,713
-47,579
-47,253
-47,578
-48,43
-49,672
-51,175
-52,796
-54,409
-55,92
-57,256
-58,334
-59,082
-59,454
-59,421
-58,979
-58,141
-56,923
-55,353
-53,467
-51,305
-48,907
-46,309
-43,55
-40,675
-37,73
-34,765
-31,827
-28,949
-26,156
-23,466
-20,886
-18,421
-16,068
-13,817
-11,656
-9,574
-7,563
-5,615
-3,724
-1,882
-0,078
1,697
3,452
5,195
6,933
8,675
10,435
12,222
14,036
15,878
17,743
19,622
21,511
23,402
25,286
27,155
29,008
30,848
32,691
34,548
36,426
38,325
40,234
42,143
44,055
45,972
47,897
49,844
51,822
53,844
55,936
58,112
60,366
62,68
65,011
67,307
69,531
71,654
73,656
75,521
77,222
78,731
80,026
81,077
81,852
82,314
82,404
82,081
81,333
80,164
78,608
76,719
74,533
72,079
69,386
66,476
63,374
60,11
56,699
53,162
49,529
45,836
42,14
38,49
34,908
31,406
27,975
24,592
21,245
17,929
14,633
11,357
8,099
4,861
1,657
-1,5
-4,606
-7,66
-10,674
-13,656
-16,606
-19,515
-22,371
-25,151
-27,84
-30,427
-32,896
-35,237
-37,447
-39,52
-41,462
-43,281
-44,979
-46,556
-48,012
-49,34
-50,542
-51,618
-52,572
-53,408
-54,133
-54,751
-55,27
-55,698
-56,042
-56,305
-56,485
-56,575
-56,573
-56,483
-56,312
-56,07
-55,768
-55,414
-55,02
-54,603
-54,172
-53,735
-53,289
-52,817
-52,312
-51,771
-51,2
-50,613
-50,021
-49,416
-48,79
-48,131
-47,421
-46,65
-45,791
-44,798
-43,641
-42,304
-40,794
-39,146
-37,387
-35,523
-33,561
-31,495
-29,332
-27,099
-24,827
-22,543
-20,286
-18,096
-16,038
-14,206
-12,684
-11,518
-10,733
-10,312
-10,251
-10,571
-11,283
-12,386
-13,868
-15,688
-17,8
-20,163
-22,719
-25,39
-28,08
-30,652
-32,975
-34,956
-36,514
-37,589
-38,119
-38,007
-37,178
-35,595
-33,238
-30,118
-26,269
-21,711
-16,497
-10,713
-4,448
2,168
8,991
15,901
22,769
29,462
35,84
41,726
46,959
51,423
55,024
57,695
59,402
60,101
59,777
58,447
56,12
52,838
48,674
43,687
37,955
31,562
24,601
17,201
9,514
1,676
-6,2
-14,034
-21,773
-29,362
-36,762
-43,908
-50,767
-57,41
-63,811
-69,832
-75,206
-79,428
-82,014
-82,694
-81,127
-76,913
-70,086
-60,986
-50,467
-40,179
-31,596
-25,768
-23,808
-26,484
-33,541
-43,987
-55,681
-65,096
-68,796
-63,716
-46,701
-15,021
31,579
90,721
158,961
231,124
304,367
380,448
458,063
531,605
592,536
625,785
618,252
567,558
474,786
346,877
201,155
52,572
-81,211
-178,992
-234,835
-249,889
-230,487
-192,964
-147,484
-101,294
-64,254
-40,858
-33,661
-41,252
-54,46
-65,321
-69,464
-66,647
-61,877
-58,409
-56,744
-56,152
-54,246
-50,256
-45,029
-39,312
-34,078
-30,008
-27,128
-25,444
-24,965
-25,445
-26,677
-28,503
-30,707
-33,121
-35,624
-38,079
-40,364
-42,398
-44,104
-45,423
-46,319
-46,773
-46,776
-46,336
-45,458
-44,156
-42,464
-40,431
-38,122
-35,593
-32,898
-30,09
-27,223
-24,349
-21,501
-18,691
-15,924
-13,206
-10,547
-7,956
-5,444
-3,014
-0,664
1,602
3,783
5,88
7,897
9,838
11,704
13,48
15,128
16,611
17,903
18,992
19,881
20,568
21,056
21,356
21,494
21,517
21,473
21,39
21,291
21,2
21,147
21,191
21,416
21,895
22,683
23,828
25,365
27,336
29,776
32,69
36,047
39,792
43,865
48,23
52,858
57,709
62,732
67,857
72,983
78,027
82,901
87,5
91,724
95,463
98,606
101,086
102,871
103,957
104,347
104,032
103,003
101,265
98,833
95,725
91,979
87,623
82,709
77,331
71,591
65,603
59,496
53,374
47,313
41,372
35,598
30,03
24,707
19,655
14,899
10,472
6,404
2,733
-0,528
-3,405
-5,937
-8,178
-10,196
-12,061
-13,829
-15,55
-17,261
-18,979
-20,716
-22,476
-24,259
-26,074
-27,943
-29,886
-31,91
-34,011
-36,177
-38,393
-40,642
-42,89
-45,104
-47,249
-49,293
-51,227
-53,056
-54,788
-56,438
-58,02
-59,537
-61
-62,435
-63,849
-65,242
-66,599
-67,887
-69,092
-70,216
-71,264
-72,248
-73,163
-73,99
-74,715
-75,325
-75,797
-76,114
-76,244
-76,134
-75,764
-75,136
-74,274
-73,236
-72,06
-70,764
-69,369
-67,888
-66,337
-64,742
-63,118
-61,469
-59,812
-58,166
-56,566
-55,066
-53,697
-52,464
-51,359
-50,346
-49,401
-48,513
-47,667
-46,85
-46,048
-45,251
-44,455
-43,673
-42,906
-42,149
-41,389
-40,599
-39,758
-38,862
-37,915
-36,93
-35,921
-34,897
-33,875
-32,876
-31,925
-31,043
-30,241
-29,52
-28,879
-28,321
-27,853
-27,49
-27,247
-27,13
-27,136
-27,254
-27,466
-27,747
-28,061
-28,363
-28,587
-28,672
-28,567
-28,235
-27,657
-26,811
-25,672
-24,207
-22,385
-20,185
-17,604
-14,657
-11,367
-7,773
-3,931
0,085
4,166
8,193
12,058
15,672
18,967
21,872
24,285
26,077
27,131
27,351
26,678
25,079
22,503
18,898
14,249
8,582
1,991
-5,434
-13,691
-22,74
-32,425
-42,439
-52,295
-61,492
-69,644
-76,312
-80,92
-83,137
-83,002
-80,992
-78,089
-75,123
-72,892
-72,547
-75,029
-80,801
-88,504
-94,724
-97,343
-95,234
-88,779
-80,579
-66,804
-40,876
0,83
64,355
146,175
236,974
334,987
432,655
523,039
601,95
652,232
659,642
618,701
526,495
396,352
250,715
109,27
-6,476
-84,319
-124,362
-131,162
-116,765
-92,285
-65,6
-44,8
-32,708
-32,226
-42,975
-58,208
-73,611
-84,661
-89,679
-92,833
-96,103
-100,008
-104,359
-106,639
-105,738
-102,142
-96,357
-89,288
-81,716
-74,057
-66,642
-59,736
-53,417
-47,583
-42,171
-37,175
-32,552
-28,273
-24,326
-20,672
-17,34
-14,423
-11,974
-10,01
-8,519
-7,452
-6,764
-6,429
-6,428
-6,743
-7,361
-8,258
-9,409
-10,792
-12,378
-14,121
-15,949
-17,757
-19,436
-20,903
-22,105
-23,009
-23,596
-23,846
-23,74
-23,273
-22,445
-21,262
-19,734
-17,867
-15,67
-13,173
-10,421
-7,484
-4,437
-1,337
1,777
4,874
7,936
10,945
13,891
16,773
19,601
22,377
25,106
27,785
30,412
32,99
35,533
38,055
40,575
43,104
45,645
48,198
50,76
53,323
55,88
58,414
60,905
63,338
65,7
67,98
70,167
72,251
74,221
76,065
77,772
79,334
80,743
81,991
83,072
83,979
84,708
85,258
85,626
85,811
85,81
85,623
85,249
84,686
83,937
83,002
81,883
80,582
79,105
77,456
75,642
73,669
71,545
69,279
66,879
64,354
61,715
58,97
56,129
53,201
50,197
47,125
43,996
40,819
37,603
34,359
31,094
27,82
24,545
21,279
18,03
14,807
11,62
8,476
5,385
2,353
-0,611
-3,5
-6,307
-9,026
-11,652
-14,18
-16,607
-18,929
-21,143
-23,248
-25,242
-27,123
-28,89
-30,544
-32,082
-33,506
-34,816
-36,012
-37,094
-38,065
-38,925
-39,676
-40,321
-40,862
-41,302
-41,643
-41,89
-42,045
-42,115
-42,102
-42,012
-41,851
-41,623
-41,334
-40,99
-40,596
-40,156
-39,675
-39,159
-38,612
-38,038
-37,441
-36,826
-36,198
-35,561
-34,918
-34,276
-33,636
-33,005
-32,385
-31,779
-31,192
-30,626
-30,082
-29,563
-29,07
-28,604
-28,166
-27,756
-27,374
-27,019
-26,692
-26,391
-26,115
-25,86
-25,623
-25,4
-25,186
-24,978
-24,77
-24,558
-24,337
-24,102
-23,851
-23,579
-23,28
-22,947
-22,568
-22,135
-21,645
-21,092
-20,476
-19,801
-19,071
-18,299
-17,503
-16,697
-15,898
-15,117
-14,358
-13,63
-12,941
-12,301
-11,727
-11,23
-10,816
-10,486
-10,234
-10,04
-9,876
-9,7
-9,45
-9,071
-8,51
-7,717
-6,669
-5,342
-3,72
-1,791
0,472
3,085
6,054
9,38
13,043
16,999
21,194
25,549
29,951
34,289
38,445
42,3
45,774
48,798
51,311
53,25
54,509
54,987
54,598
53,275
50,994
47,739
43,477
38,21
31,995
24,888
17,002
8,411
-0,957
-11,052
-21,683
-32,581
-43,236
-53,094
-61,749
-68,661
-73,156
-75,003
-74,404
-71,801
-68,205
-64,962
-63,284
-64,362
-69,481
-77,809
-86,292
-93,746
-98,901
-101,345
-104,006
-102,551
-88,3
-55,792
2,582
85,376
182,536
288,873
396,026
496,11
583,841
646,655
674,414
663,009
612,296
530,695
428,663
315,29
201,906
99,895
18,696
-35,216
-63,455
-75,87
-81,927
-87,303
-93,173
-95,272
-91,274
-83,563
-75,321
-70,016
-69,438
-72,602
-77,904
-84,196
-90,199
-94,42
-96,065
-94,753
-90,458
-83,867
-75,699
-66,466
-56,87
-47,656
-39,236
-31,87
-25,641
-20,391
-16,034
-12,53
-9,783
-7,734
-6,341
-5,556
-5,357
-5,701
-6,499
-7,646
-9,03
-10,566
-12,208
-13,927
-15,696
-17,503
-19,323
-21,14
-22,922
-24,605
-26,12
-27,396
-28,381
-29,061
-29,439
-29,525
-29,341
-28,898
-28,202
-27,26
-26,072
-24,635
-22,95
-21,021
-18,864
-16,524
-14,052
-11,511
-8,948
-6,393
-3,867
-1,38
1,061
3,454
5,801
8,109
10,38
12,613
14,804
16,948
19,045
21,104
23,138
25,165
27,199
29,246
31,311
33,397
35,5
37,617
39,739
41,849
43,938
45,993
48,003
49,961
51,86
53,694
55,46
57,153
58,765
60,291
61,72
63,039
64,233
65,279
66,155
66,848
67,347
67,647
67,754
67,675
67,416
66,988
66,393
65,628
64,701
63,615
62,38
61,02
59,565
58,065
56,579
55,157
53,834
52,639
51,57
50,619
49,769
48,985
48,243
47,526
46,807
46,059
45,253
44,34
43,258
41,932
40,263
38,158
35,548
32,381
28,638
24,326
19,463
14,092
8,268
2,039
-4,526
-11,347
-18,344
-25,411
-32,422
-39,252
-45,747
-51,746
-57,128
-61,787
-65,648
-68,664
-70,793
-72,016
-72,338
-71,782
-70,394
-68,249
-65,426
-62,031
-58,197
-54,06
-49,78
-45,516
-41,395
-37,523
-33,991
-30,872
-28,245
-26,184
-24,738
-23,924
-23,744
-24,169
-25,165
-26,674
-28,606
-30,863
-33,33
-35,903
-38,506
-41,082
-43,581
-45,954
-48,15
-50,107
-51,788
-53,169
-54,237
-54,989
-55,429
-55,574
-55,468
-55,166
-54,733
-54,219
-53,655
-53,06
-52,451
-51,845
-51,259
-50,712
-50,211
-49,764
-49,379
-49,061
-48,817
-48,644
-48,532
-48,46
-48,408
-48,36
-48,307
-48,245
-48,172
-48,085
-47,986
-47,875
-47,757
-47,635
-47,513
-47,392
-47,279
-47,176
-47,082
-46,995
-46,909
-46,818
-46,718
-46,601
-46,452
-46,266
-46,039
-45,772
-45,479
-45,157
-44,802
-44,407
-43,959
-43,455
-42,913
-42,351
-41,796
-41,286
-40,853
-40,542
-40,407
-40,473
-40,747
-41,219
-41,853
-42,636
-43,568
-44,633
-45,817
-47,095
-48,412
-49,711
-50,925
-51,95
-52,68
-53,006
-52,811
-52,031
-50,642
-48,637
-46,043
-42,875
-39,14
-34,875
-30,136
-24,986
-19,518
-13,835
-8,056
-2,357
3,066
8,035
12,381
15,985
18,78
20,698
21,692
21,712
20,693
18,608
15,46
11,261
6,068
-0,043
-6,986
-14,601
-22,717
-31,218
-39,975
-48,95
-58,197
-67,634
-77,107
-86,342
-94,749
-101,741
-106,875
-109,562
-109,322
-106,119
-100,021
-91,85
-83,513
-76,749
-73,103
-73,177
-75,883
-80,04
-85,432
-93,972
-108,086
-126,532
-142,597
-142,864
-113,289
-49,555
41,625
145,145
244,123
332,604
415,896
497,861
578,551
647,769
682,523
669,327
603,498
488,007
344,251
191,578
48,919
-61,065
-132,078
-164,371
-165,826
-156,448
-146,843
-140,69
-137,731
-130,136
-116,161
-99,548
-83,493
-72,385
-67,727
-67,844
-71,235
-76,384
-81,519
-85,255
-86,852
-86,015
-83,004
-78,519
-73,158
-67,382
-61,808
-57,031
-53,343
-50,867
-49,523
-49,074
-49,37
-50,293
-51,676
-53,354
-55,185
-57,049
-58,863
-60,568
-62,091
-63,378
-64,409
-65,199
-65,778
-66,166
-66,372
-66,393
-66,215
-65,845
-65,294
-64,573
-63,705
-62,715
-61,629
-60,488
-59,324
-58,148
-56,954
-55,712
-54,389
-52,97
-51,45
-49,836
-48,151
-46,406
-44,614
-42,79
-40,944
-39,079
-37,198
-35,291
-33,35
-31,373
-29,369
-27,353
-25,344
-23,349
-21,371
-19,406
-17,445
-15,482
-13,511
-11,521
-9,509
-7,472
-5,41
-3,332
-1,246
0,841
2,923
4,996
7,057
9,101
11,12
13,107
15,053
16,951
18,791
20,564
22,261
23,874
25,396
26,823
28,15
29,372
30,483
31,478
32,351
33,099
33,717
34,2
34,544
34,746
34,802
34,711
34,472
34,084
33,544
32,851
32,002
31,003
29,858
28,573
27,15
25,596
23,915
22,118
20,214
18,204
16,091
13,877
11,563
9,159
6,675
4,121
1,508
-1,164
-3,893
-6,671
-9,489
-12,346
-15,238
-18,165
-21,134
-24,123
-27,113
-30,088
-33,029
-35,93
-38,789
-41,595
-44,341
-47,015
-49,603
-52,102
-54,512
-56,815
-59,002
-61,055
-62,954
-64,713
-66,347
-67,862
-69,272
-70,576
-71,772
-72,87
-73,879
-74,802
-75,648
-76,417
-77,108
-77,736
-78,314
-78,858
-79,387
-79,894
-80,369
-80,815
-81,228
-81,609
-81,965
-82,291
-82,583
-82,845
-83,081
-83,295
-83,494
-83,671
-83,823
-83,946
-84,035
-84,095
-84,132
-84,146
-84,14
-84,115
-84,071
-84,01
-83,938
-83,849
-83,742
-83,613
-83,458
-83,279
-83,076
-82,847
-82,592
-82,31
-81,998
-81,655
-81,282
-80,878
-80,442
-79,975
-79,476
-78,947
-78,391
-77,811
-77,21
-76,591
-75,956
-75,311
-74,657
-73,999
-73,34
-72,683
-72,031
-71,388
-70,758
-70,143
-69,547
-68,975
-68,429
-67,912
-67,428
-66,979
-66,568
-66,196
-65,866
-65,579
-65,335
-65,136
-64,981
-64,869
-64,798
-64,765
-64,767
-64,8
-64,859
-64,941
-65,038
-65,148
-65,264
-65,382
-65,496
-65,6
-65,686
-65,748
-65,778
-65,77
-65,717
-65,611
-65,444
-65,21
-64,905
-64,522
-64,055
-63,497
-62,835
-62,063
-61,179
-60,185
-59,083
-57,881
-56,587
-55,215
-53,787
-52,323
-50,839
-49,348
-47,853
-46,361
-44,887
-43,446
-42,062
-40,746
-39,493
-38,296
-37,144
-36,015
-34,884
-33,708
-32,424
-30,979
-29,34
-27,488
-25,425
-23,146
-20,635
-17,865
-14,81
-11,466
-7,847
-3,977
0,12
4,402
8,814
13,267
17,64
21,828
25,759
29,389
32,693
35,637
38,147
40,122
41,467
42,11
42,013
41,155
39,497
37,009
33,711
29,661
24,958
19,708
13,896
7,432
0,369
-7,157
-14,883
-22,298
-28,925
-34,372
-38,011
-39,226
-37,95
-34,216
-28,416
-21,83
-15,735
-11,342
-10,309
-12,566
-15,773
-18,385
-19,452
-20,283
-24,478
-31,143
-32,781
-17,605
24,34
96,137
190,704
294,802
401,365
505,232
601,756
686,876
744,928
760,004
725,412
639,337
514,253
371,268
228,926
108,395
25,114
-18,251
-25,597
-11,309
6,581
19,296
23,869
23,891
26,342
32,033
38,925
44,499
45,485
41,789
35,318
27,444
19,958
14,482
11,505
11,243
13,659
18,169
24,181
31,233
38,683
45,835
52,289
57,82
62,358
66,043
68,982
71,241
72,94
74,213
75,167
75,892
76,449
76,871
77,204
77,524
77,914
78,469
79,283
80,426
81,932
83,807
86,035
88,57
91,358
94,326
97,377
100,426
103,399
106,219
108,83
111,174
113,172
114,743
115,795
116,233
116
115,065
113,411
111,059
108,043
104,419
100,271
95,677
90,698
85,385
79,769
73,869
