Nom
Date de naissance
Date d’enregistrement,2022-02-27 15:52:28 +0100
Classification,Rythme sinusal
Symptômes,
Version du logiciel,1.52
Appareil,"Watch5,1"
Fréquence d’échantillonnage,511,242 hertz


Dérivation,Dérivation DI
Unité,µV

-458,611
-619,145
-719,937
-750,558
-730,561
-692,846
-664,06
-654,684
-658,016
-660,195
-653,935
-638,791
-618,999
-601,099
-587,026
-575,633
-565,86
-555,295
-544,08
-533,686
-521,802
-507,769
-488,019
-458,168
-424,368
-391,18
-365,061
-354,135
-351,885
-352,642
-352,24
-344,012
-332,516
-322,257
-314,055
-310,563
-309,863
-309,64
-310,212
-311,125
-312,277
-313,784
-314,987
-315,404
-314,963
-313,591
-311,236
-307,867
-303,463
-298,061
-291,765
-284,692
-276,901
-268,403
-259,192
-249,331
-238,954
-228,267
-217,532
-206,931
-196,578
-186,564
-176,949
-167,793
-159,149
-151,017
-143,359
-136,159
-129,417
-123,168
-117,476
-112,359
-107,746
-103,549
-99,682
-96,009
-92,713
-89,907
-87,328
-85,033
-82,002
-77,436
-71,995
-65,733
-62,09
-60,581
-63,02
-87,031
-97,317
-32,851
25,588
-23,335
-87,555
-73,157
-41,708
-40,421
-45,416
-48,927
-49,985
-40,708
-26,567
-11,462
-1,517
-5,414
-15,795
-26,453
-33,131
-28,862
-18,257
-6,089
6,269
15,833
23,299
30,052
36,336
42,429
51,765
63,079
78,535
117,763
141,124
80,467
25,177
87,193
164,393
153,441
120,402
115,459
114,846
110,805
107,21
101,432
93,169
82,717
71,109
59,904
49,711
41,325
35,424
32,187
31,942
34,048
36,444
37,529
35,532
29,98
23,543
16,333
6,518
-8,215
-33,223
-64,104
-86,698
-86,662
-46,77
35,038
143,69
264,902
380,992
482,485
572,458
649,079
709,204
749,637
763,2
746,892
703,14
635,747
550,585
455,2
356,774
261,414
174,984
102,675
47,076
8,853
-12,632
-20,02
-16,852
-6,185
8,416
22,923
34,944
43,396
47,973
49,584
49,52
49,024
49,813
53,478
60,861
72,291
87,032
105,954
129,82
155,53
181,45
202,293
212,271
216,731
219,227
225,428
243,142
265,392
286,385
302,207
306,292
303,511
298,816
293,439
290,551
288,7
285,903
282,764
279,185
275,512
272,425
269,845
267,684
266,098
265,147
264,83
265,176
266,206
267,885
270,172
273,027
276,344
280,054
284,125
288,496
293,077
297,756
302,421
306,996
311,437
315,707
319,772
323,603
327,186
330,536
333,677
336,614
339,329
341,769
343,864
345,565
346,855
347,737
348,23
348,37
348,211
347,827
347,311
346,742
346,182
345,685
345,304
345,114
345,207
345,702
346,744
348,468
350,998
354,428
358,814
364,151
370,381
377,402
385,069
393,241
401,787
410,564
419,422
428,214
436,8
445,023
452,718
459,701
465,776
470,781
474,596
477,158
478,469
478,571
477,548
475,504
472,552
468,823
464,467
459,605
454,331
448,744
442,933
437,006
431,102
425,33
419,772
414,484
409,482
404,766
400,317
396,087
392,011
388,016
384,005
379,912
375,697
371,326
366,785
362,064
357,13
351,965
346,57
340,95
335,117
329,1
322,907
316,554
310,074
303,499
296,88
290,272
283,707
277,217
270,812
264,484
258,236
252,077
245,995
239,976
234,002
228,039
222,102
216,236
210,477
204,86
199,403
194,096
188,947
183,966
179,167
174,578
170,21
166,057
162,141
158,497
155,16
152,185
149,57
147,255
145,2
143,364
141,713
140,24
138,912
137,687
136,546
135,474
134,472
133,554
132,704
131,894
131,103
130,289
129,445
128,592
127,718
126,817
125,889
124,927
123,95
122,978
121,994
120,973
119,885
118,695
117,383
115,925
114,267
112,386
110,265
107,903
105,347
102,63
99,765
96,777
93,674
90,477
87,243
84,017
80,825
77,71
74,709
71,896
69,383
67,251
65,548
64,289
63,448
63,011
62,979
63,322
64
64,957
66,116
67,443
68,932
70,549
72,251
73,957
75,546
76,931
78,043
78,828
79,25
79,268
78,852
78,025
76,831
75,328
73,584
71,599
69,362
66,897
64,237
61,441
58,592
55,749
52,97
50,352
47,986
45,961
44,352
43,166
42,401
42,05
42,11
42,647
43,723
45,366
47,614
50,5
54,05
58,319
63,343
69,081
75,487
82,51
90,096
98,251
106,967
116,218
125,968
136,123
146,579
157,254
168,029
178,751
189,256
199,329
208,781
217,508
225,412
232,41
238,439
243,389
247,17
249,735
251,028
251,029
249,734
247,11
243,183
238,052
231,861
224,833
217,174
208,99
200,392
191,448
182,211
172,837
163,394
153,857
144,382
135,232
126,89
120,167
115,721
113,942
115,286
119,953
127,687
138,002
149,541
160,278
168,596
172,988
172,143
165,918
155,077
141,142
127,558
118,495
117,415
128,561
155,937
201,35
265,298
344,632
431,387
517,986
599,18
674,104
745,304
812,234
867,157
891,101
863,408
771,427
615,769
420,606
221,009
50,655
-65,565
-125,391
-142,041
-135,369
-122,526
-108,795
-92,439
-68,207
-34,592
3,381
39,512
67,785
84,6
89,457
83,717
69,805
51,066
31,313
12,968
-2,808
-15,084
-23,181
-27,011
-26,897
-24,122
-20,831
-18,291
-16,963
-17,157
-18,933
-22,315
-27,335
-33,562
-40,151
-46,551
-52,46
-57,725
-62,398
-66,457
-69,805
-72,455
-74,488
-75,974
-76,986
-77,546
-77,62
-77,208
-76,337
-75,055
-73,436
-71,546
-69,445
-67,18
-64,778
-62,266
-59,669
-57,004
-54,286
-51,517
-48,69
-45,802
-42,864
-39,883
-36,865
-33,81
-30,708
-27,553
-24,343
-21,081
-17,77
-14,415
-11,018
-7,585
-4,125
-0,646
2,838
6,32
9,793
13,251
16,688
20,095
23,466
26,791
30,066
33,282
36,431
39,505
42,491
45,38
48,162
50,825
53,356
55,743
57,975
60,038
61,921
63,613
65,103
66,378
67,429
68,244
68,812
69,123
69,164
68,925
68,395
67,567
66,433
64,988
63,226
61,144
58,743
56,021
52,978
49,615
45,932
41,926
37,601
32,958
28,002
22,736
17,167
11,302
5,157
-1,254
-7,916
-14,815
-21,946
-29,296
-36,845
-44,574
-52,46
-60,475
-68,592
-76,772
-84,962
-93,111
-101,169
-109,091
-116,852
-124,428
-131,795
-138,932
-145,818
-152,448
-158,838
-165,005
-170,958
-176,709
-182,274
-187,691
-193,033
-198,365
-203,744
-209,219
-214,813
-220,548
-226,431
-232,446
-238,549
-244,658
-250,66
-256,426
-261,854
-266,84
-271,284
-275,066
-278,036
-280,068
-281,047
-280,87
-279,455
-276,715
-272,6
-267,121
-260,346
-252,401
-243,464
-233,739
-223,421
-212,714
-201,809
-190,892
-180,165
-169,795
-159,946
-150,783
-142,468
-135,181
-129,067
-124,206
-120,623
-118,292
-117,129
-117,016
-117,825
-119,402
-121,622
-124,388
-127,608
-131,213
-135,136
-139,303
-143,62
-147,978
-152,269
-156,405
-160,34
-164,057
-167,584
-170,983
-174,333
-177,738
-181,277
-185,002
-188,95
-193,137
-197,572
-202,253
-207,2
-212,443
-218,035
-224,049
-230,523
-237,459
-244,832
-252,579
-260,614
-268,835
-277,127
-285,366
-293,45
-301,293
-308,828
-316,018
-322,803
-329,111
-334,847
-339,887
-344,141
-347,56
-350,11
-351,786
-352,608
-352,617
-351,897
-350,572
-348,746
-346,502
-343,907
-341,001
-337,842
-334,507
-331,076
-327,646
-324,295
-321,08
-318,061
-315,297
-312,821
-310,647
-308,755
-307,08
-305,577
-304,217
-302,974
-301,826
-300,748
-299,705
-298,677
-297,652
-296,61
-295,533
-294,393
-293,148
-291,777
-290,273
-288,653
-286,969
-285,282
-283,646
-282,134
-280,818
-279,77
-279,082
-278,832
-279,088
-279,954
-281,495
-283,819
-287,119
-291,438
-296,697
-302,695
-308,947
-314,944
-320,356
-324,683
-327,336
-328,288
-327,807
-326,591
-326,227
-328,059
-332,97
-342,158
-356,413
-375,185
-397,297
-420,468
-440,633
-454,203
-458,003
-448,119
-421,996
-379,157
-320,145
-247,833
-167,766
-85,404
-7,3
58,42
105,59
129,268
127,501
101,561
52,105
-17,76
-106,752
-211,877
-320,063
-420,89
-501,721
-550,946
-575,125
-580,445
-573,164
-564,252
-552,412
-536,745
-520,883
-504,048
-488,624
-477,471
-470,016
-466,06
-464,973
-465,037
-464,926
-464,785
-465,379
-467,157
-470,175
-473,692
-477,034
-480,23
-483,463
-486,311
-487,849
-487,391
-484,922
-481,229
-477,036
-472,589
-467,915
-463,034
-458,241
-453,842
-449,771
-445,62
-440,992
-435,689
-429,696
-423,137
-416,048
-408,399
-400,235
-391,65
-382,759
-373,661
-364,396
-354,96
-345,37
-335,658
-325,865
-316,042
-306,223
-296,429
-286,68
-276,985
-267,346
-257,774
-248,275
-238,86
-229,537
-220,314
-211,197
-202,197
-193,323
-184,58
-175,972
-167,497
-159,154
-150,944
-142,87
-134,937
-127,152
-119,517
-112,034
-104,705
-97,533
-90,517
-83,66
-76,962
-70,422
-64,042
-57,825
-51,775
-45,896
-40,194
-34,672
-29,336
-24,189
-19,238
-14,486
-9,939
-5,602
-1,478
2,427
6,11
9,565
12,789
15,778
18,529
21,041
23,31
25,336
27,119
28,658
29,955
31,009
31,822
32,397
32,735
32,839
32,712
32,359
31,785
30,996
30
28,806
27,422
25,86
24,128
22,239
20,2
18,025
15,722
13,302
10,775
8,152
5,444
2,659
-0,192
-3,101
-6,059
-9,059
-12,094
-15,16
-18,249
-21,358
-24,482
-27,614
-30,749
-33,881
-37,002
-40,105
-43,182
-46,226
-49,231
-52,19
-55,099
-57,952
-60,748
-63,484
-66,156
-68,76
-71,29
-73,738
-76,094
-78,349
-80,491
-82,507
-84,389
-86,124
-87,704
-89,117
-90,356
-91,411
-92,269
-92,911
-93,317
-93,466
-93,344
-92,942
-92,257
-91,293
-90,058
-88,567
-86,837
-84,882
-82,707
-80,302
-77,649
-74,723
-71,5
-67,966
-64,122
-59,966
-55,489
-50,681
-45,533
-40,023
-34,128
-27,807
-21,003
-13,671
-5,793
2,614
11,503
20,813
30,474
40,423
50,603
60,944
71,375
81,831
92,261
102,615
112,832
122,824
132,461
141,626
150,239
158,258
165,67
172,469
178,659
184,241
189,253
193,763
197,833
201,504
204,792
207,694
210,228
212,448
214,448
216,326
218,152
219,979
221,866
223,894
226,143
228,678
231,49
234,512
237,695
241,003
244,431
247,995
251,679
255,44
259,221
262,958
266,583
270,009
273,095
275,651
277,496
278,471
278,497
277,556
275,61
272,625
268,562
263,371
257,032
249,531
240,826
230,896
219,765
207,51
194,299
180,351
165,876
151,081
136,147
121,245
106,577
92,332
78,685
65,811
53,893
43,16
33,881
26,295
20,562
16,762
14,909
14,986
16,994
20,92
26,678
34,116
43,035
53,227
64,511
76,737
89,64
102,791
115,87
128,7
141,361
154,286
167,849
182,202
197,595
214,336
232,347
251,314
270,263
287,27
300,637
309,138
311,694
307,942
298,645
285,188
270,401
258,905
255,081
262,945
286,239
326,877
384,876
459,15
546,073
639,216
731,841
816,637
885,921
934,214
957,675
953,29
921,265
865,115
789,448
700,771
607,014
514,647
429,869
359,129
306,061
271,675
255,768
255,848
267,914
288,575
313,732
338,432
359,55
375,381
385,006
389,058
388,818
385,255
379,962
375,061
371,71
370,431
371,322
373,777
377,175
381,101
384,915
387,854
389,523
389,761
388,594
386,31
383,144
379,25
374,846
370,17
365,401
360,709
356,245
352,074
348,255
344,856
341,905
339,427
337,439
335,928
334,856
334,189
333,888
333,911
334,228
334,797
335,567
336,484
337,492
338,549
339,635
340,733
341,836
342,944
344,056
345,183
346,352
347,581
348,888
350,29
351,795
353,408
355,139
356,989
358,955
361,027
363,183
365,396
367,641
369,894
372,133
374,341
376,494
378,571
380,558
382,434
384,186
385,825
387,361
388,815
390,229
391,643
393,106
394,689
396,439
398,389
400,561
402,945
405,528
408,292
411,205
414,231
417,328
420,416
423,402
426,183
428,624
430,587
431,925
432,455
432,017
430,486
427,763
423,796
418,562
412,039
404,228
395,144
384,811
373,29
360,67
347,042
332,525
317,258
301,396
285,149
268,731
252,313
236,037
220,004
204,28
188,936
174,042
159,641
145,774
132,464
119,715
107,546
95,98
85,003
74,576
64,615
55,003
45,658
36,533
27,596
18,841
10,256
1,817
-6,471
-14,598
-22,558
-30,347
-37,983
-45,507
-52,929
-60,236
-67,388
-74,316
-80,974
-87,341
-93,399
-99,138
-104,551
-109,628
-114,38
-118,83
-122,993
-126,875
-130,469
-133,751
-136,715
-139,372
-141,739
-143,85
-145,731
-147,398
-148,869
-150,167
-151,309
-152,309
-153,175
-153,9
-154,489
-154,949
-155,292
-155,537
-155,694
-155,773
-155,78
-155,722
-155,606
-155,438
-155,224
-154,967
-154,673
-154,351
-154,01
-153,665
-153,327
-153,007
-152,716
-152,466
-152,268
-152,135
-152,077
-152,105
-152,228
-152,457
-152,804
-153,28
-153,893
-154,652
-155,566
-156,643
-157,887
-159,304
-160,899
-162,674
-164,631
-166,771
-169,094
-171,599
-174,283
-177,142
-180,173
-183,368
-186,721
-190,222
-193,862
-197,628
-201,509
-205,49
-209,556
-213,691
-217,877
-222,095
-226,325
-230,548
-234,743
-238,886
-242,958
-246,933
-250,792
-254,512
-258,071
-261,448
-264,622
-267,575
-270,289
-272,746
-274,929
-276,826
-278,421
-279,704
-280,666
-281,297
-281,591
-281,545
-281,159
-280,435
-279,377
-277,991
-276,287
-274,274
-271,967
-269,379
-266,524
-263,419
-260,081
-256,53
-252,79
-248,887
-244,847
-240,696
-236,462
-232,171
-227,851
-223,529
-219,226
-214,963
-210,763
-206,656
-202,678
-198,867
-195,256
-191,875
-188,749
-185,894
-183,324
-181,046
-179,049
-177,321
-175,846
-174,613
-173,618
-172,857
-172,313
-171,954
-171,732
-171,596
-171,508
-171,432
-171,342
-171,243
-171,143
-171,084
-171,132
-171,332
-171,75
-172,464
-173,545
-175,078
-177,167
-179,888
-183,374
-187,852
-193,405
-199,975
-207,336
-214,953
-222,303
-228,995
-234,507
-238,218
-239,878
-239,651
-238,257
-237,26
-238,175
-242,017
-249,78
-262,226
-279,215
-299,62
-321,135
-339,83
-351,373
-352,042
-338,166
-306,612
-255,957
-186,527
-100,523
-2,647
100,955
203,451
296,913
373,699
427,639
455,936
459,464
438,112
392,381
321,885
223,665
106,727
-12,334
-117,331
-188,008
-220,583
-227,688
-220,288
-212,492
-210,072
-206,374
-199,092
-188,35
-175,625
-166,255
-162,518
-163,332
-167,321
-172,822
-178,243
-182,274
-184,174
-183,53
-180,37
-175,44
-169,465
-162,906
-156,391
-150,558
-145,733
-142,144
-139,834
-138,572
-138,188
-138,554
-139,472
-140,767
-142,282
-143,849
-145,339
-146,648
-147,667
-148,308
-148,511
-148,233
-147,467
-146,228
-144,531
-142,411
-139,907
-137,061
-133,913
-130,492
-126,825
-122,944
-118,901
-114,756
-110,567
-106,39
-102,268
-98,24
-94,338
-90,577
-86,964
-83,507
-80,202
-77,057
-74,101
-71,369
-68,922
-66,826
-65,113
-63,796
-62,871
-62,298
-62,036
-62,027
-62,186
-62,452
-62,774
-63,099
-63,398
-63,637
-63,752
-63,675
-63,312
-62,549
-61,312
-59,554
-57,243
-54,397
-51,053
-47,27
-43,154
-38,796
-34,259
-29,609
-24,881
-20,105
-15,339
-10,64
-6,074
-1,737
2,306
6,006
9,313
12,221
14,737
16,892
18,753
20,379
21,805
23,06
24,153
25,083
25,862
26,5
27,002
27,391
27,682
27,888
28,027
28,103
28,106
28,021
27,816
27,46
26,937
26,236
25,356
24,301
23,076
21,688
20,155
18,487
16,693
14,782
12,758
10,628
8,406
6,103
3,737
1,326
-1,118
-3,579
-6,044
-8,503
-10,944
-13,361
-15,747
-18,096
-20,401
-22,655
-24,848
-26,973
-29,022
-30,987
-32,861
-34,637
-36,31
-37,875
-39,329
-40,668
-41,89
-42,994
-43,976
-44,837
-45,576
-46,191
-46,683
-47,052
-47,297
-47,42
-47,422
-47,305
-47,07
-46,721
-46,259
-45,688
-45,011
-44,232
-43,353
-42,379
-41,314
-40,163
-38,932
-37,625
-36,248
-34,808
-33,31
-31,761
-30,166
-28,53
-26,86
-25,159
-23,433
-21,686
-19,923
-18,148
-16,365
-14,579
-12,793
-11,013
-9,242
-7,485
-5,744
-4,025
-2,331
-0,665
0,968
2,566
4,125
5,641
7,112
8,535
9,906
11,225
12,489
13,696
14,846
15,937
16,969
17,94
18,849
19,696
20,48
21,199
21,852
22,438
22,957
23,408
23,791
24,106
24,353
24,535
24,651
24,705
24,699
24,635
24,518
24,352
24,142
23,894
23,613
23,306
22,982
22,648
22,313
21,983
21,67
21,381
21,125
20,913
20,752
20,653
20,626
20,681
20,829
21,078
21,44
21,923
22,537
23,289
24,187
25,237
26,445
27,814
29,345
31,04
32,897
34,915
37,087
39,41
41,874
44,472
47,195
50,033
52,974
56,004
59,109
62,272
65,476
68,703
71,93
75,137
78,304
81,41
84,44
87,376
90,2
92,892
95,424
97,77
99,91
101,819
103,479
104,873
105,992
106,84
107,439
107,807
107,965
107,931
107,705
107,299
106,728
106,007
105,176
104,264
103,29
102,284
101,268
100,254
99,24
98,172
96,948
95,473
93,666
91,475
88,872
85,795
82,168
77,924
72,964
67,242
60,695
53,156
44,592
35,127
25,044
14,941
5,481
-2,852
-9,444
-13,594
-15,142
-14,306
-11,823
-9,26
-7,923
-8,719
-12,891
-21,426
-34,095
-49,749
-65,835
-78,403
-84,294
-80,359
-62,398
-27,292
26,602
97,683
179,571
267,455
358,657
451,63
547,913
639,32
709,633
746,309
735,396
675,512
582,745
468,249
345,682
231,101
125,991
37,265
-25,761
-68,492
-91,898
-99,082
-99,978
-94,029
-81,375
-66,017
-49,037
-34,598
-26,32
-24,073
-27,128
-33,888
-42,481
-51,284
-58,632
-63,497
-65,456
-64,644
-61,766
-57,526
-52,525
-47,506
-43,178
-39,924
-37,933
-37,172
-37,403
-38,452
-40,174
-42,367
-44,845
-47,457
-50,07
-52,592
-54,942
-57,007
-58,695
-59,95
-60,731
-61,04
-60,882
-60,268
-59,236
-57,833
-56,112
-54,129
-51,929
-49,556
-47,065
-44,513
-41,962
-39,474
-37,094
-34,852
-32,771
-30,863
-29,131
-27,575
-26,184
-24,939
-23,827
-22,835
-21,953
-21,173
-20,482
-19,862
-19,3
-18,78
-18,286
-17,807
-17,331
-16,845
-16,34
-15,807
-15,241
-14,636
-13,985
-13,282
-12,521
-11,695
-10,798
-9,829
-8,782
-7,657
-6,452
-5,17
-3,813
-2,387
-0,896
0,652
2,249
3,885
5,552
7,237
8,929
10,616
12,285
13,923
15,515
17,049
18,51
19,885
21,16
22,321
23,356
24,252
24,998
25,582
25,994
26,224
26,265
26,109
25,749
25,18
24,399
23,403
22,19
20,761
19,116
17,26
15,195
12,927
10,463
7,811
4,979
1,976
-1,188
-4,501
-7,952
-11,531
-15,224
-19,019
-22,904
-26,866
-30,892
-34,969
-39,086
-43,228
-47,383
-51,541
-55,689
-59,815
-63,909
-67,961
-71,962
-75,9
-79,769
-83,561
-87,266
-90,881
-94,397
-97,811
-101,118
-104,314
-107,398
-110,366
-113,218
-115,953
-118,569
-121,068
-123,45
-125,715
-127,864
-129,898
-131,82
-133,632
-135,334
-136,93
-138,423
-139,814
-141,107
-142,303
-143,407
-144,421
-145,347
-146,188
-146,948
-147,629
-148,234
-148,766
-149,228
-149,622
-149,952
-150,219
-150,425
-150,572
-150,661
-150,694
-150,672
-150,596
-150,467
-150,286
-150,055
-149,773
-149,443
-149,064
-148,639
-148,167
-147,65
-147,088
-146,482
-145,833
-145,142
-144,41
-143,637
-142,826
-141,976
-141,09
-140,168
-139,211
-138,219
-137,193
-136,135
-135,044
-133,921
-132,768
-131,586
-130,377
-129,141
-127,881
-126,598
-125,295
-123,972
-122,631
-121,274
-119,901
-118,515
-117,116
-115,704
-114,283
-112,852
-111,413
-109,966
-108,512
-107,051
-105,583
-104,108
-102,625
-101,134
-99,634
-98,124
-96,604
-95,073
-93,532
-91,978
-90,411
-88,831
-87,235
-85,624
-83,995
-82,346
-80,676
-78,983
-77,267
-75,525
-73,758
-71,965
-70,146
-68,303
-66,436
-64,549
-62,642
-60,719
-58,781
-56,832
-54,872
-52,903
-50,928
-48,947
-46,964
-44,983
-43,007
-41,043
-39,095
-37,168
-35,269
-33,402
-31,565
-29,76
-27,99
-26,259
-24,581
-22,968
-21,424
-19,96
-18,585
-17,3
-16,108
-14,991
-13,919
-12,864
-11,799
-10,701
-9,563
-8,369
-7,095
-5,715
-4,198
-2,521
-0,676
1,348
3,57
5,988
8,568
11,227
13,84
16,287
18,473
20,338
21,808
22,791
23,186
22,875
21,764
19,821
16,963
13,073
8,171
2,363
-4,026
-10,374
-16,119
-20,768
-23,697
-24,507
-23,186
-19,864
-15,314
-10,778
-7,164
-5,559
-7,125
-12,027
-19,565
-28,562
-36,621
-40,704
-38,085
-25,089
2,414
44,842
99,235
162,775
230,831
304,077
389,586
485,472
584,092
669,888
717,028
711,905
652,322
543,104
402,411
248,493
99,61
-21,026
-98,136
-127,183
-115,95
-86,27
-58,432
-42,935
-40,283
-41,637
-40,324
-35,713
-30,391
-29,068
-33,18
-40,632
-48,771
-54,796
-57,281
-56,18
-51,534
-43,663
-33,325
-21,336
-8,698
3,557
14,867
24,959
33,652
40,925
46,78
51,188
54,206
55,936
56,435
55,767
53,99
51,169
47,452
43,021
38,067
32,782
27,314
21,807
16,42
11,288
6,518
2,215
-1,536
-4,668
-7,122
-8,871
-9,915
-10,276
-10,001
-9,15
-7,792
-6,006
-3,864
-1,444
1,165
3,894
6,693
9,517
12,328
15,093
17,781
20,375
22,878
25,293
27,626
29,886
32,084
34,24
36,375
38,516
40,693
42,925
45,222
47,591
50,035
52,554
55,148
57,809
60,523
63,278
66,068
68,883
71,718
74,564
77,408
80,238
83,043
85,81
88,532
91,198
93,801
96,333
98,79
101,164
103,454
105,653
107,755
109,754
111,641
113,41
115,055
116,569
117,946
119,182
120,272
121,214
122,007
122,647
123,135
123,469
123,649
123,674
123,545
123,263
122,828
122,243
121,509
120,629
119,607
118,445
117,148
115,718
114,162
112,483
110,686
108,777
106,761
104,646
102,437
100,142
97,769
95,324
92,816
90,25
87,635
84,977
82,283
79,557
76,807
74,038
71,256
68,465
65,672
62,881
60,097
57,327
54,575
51,846
49,145
46,478
43,848
41,262
38,723
36,237
33,807
31,439
29,137
26,904
24,745
22,662
20,658
18,738
16,903
15,156
13,5
11,938
10,472
9,105
7,841
6,682
5,63
4,689
3,861
3,148
2,553
2,077
1,721
1,487
1,375
1,386
1,518
1,77
2,142
2,631
3,235
3,95
4,774
5,702
6,731
7,855
9,069
10,367
11,745
13,196
14,712
16,287
17,914
19,584
21,292
23,027
24,782
26,546
28,312
30,068
31,807
33,517
35,19
36,816
38,386
39,892
41,326
42,681
43,949
45,124
46,201
47,175
48,041
48,797
49,437
49,961
50,368
50,658
50,832
50,89
50,835
50,671
50,404
50,037
49,574
49,021
48,383
47,667
46,882
46,034
45,131
44,182
43,198
42,191
41,174
40,157
39,148
38,156
37,191
36,261
35,374
34,535
33,743
33,004
32,325
31,715
31,183
30,729
30,34
30,012
29,742
29,523
29,353
29,218
29,099
28,99
28,897
28,826
28,788
28,775
28,77
28,765
28,747
28,714
28,683
28,645
28,586
28,509
28,418
28,326
28,266
28,233
28,199
28,163
28,111
28,051
28,005
27,969
27,938
27,914
27,887
27,87
27,886
27,914
27,932
27,919
27,824
27,616
27,267
26,694
25,822
24,597
22,984
20,957
18,484
15,516
11,966
7,756
2,856
-2,803
-9,312
-16,634
-24,623
-32,942
-40,948
-48,007
-53,565
-56,968
-57,834
-56,29
-52,688
-48,05
-43,964
-41,782
-42,965
-48,958
-59,979
-75,021
-92,449
-109,333
-121,922
-126,516
-118,539
-93,556
-51,19
5,281
72,33
146,721
229,921
325,869
430,864
531,521
606,621
636,488
610,799
534,226
424,135
294,16
160,825
39,938
-62,429
-133,74
-171,354
-186,676
-186,324
-181,502
-178,563
-172,032
-160,849
-146,011
-129,213
-116,09
-109,414
-108,511
-112,072
-118,006
-124,286
-129,288
-132,022
-131,993
-129,147
-124,148
-117,754
-110,567
-103,363
-96,895
-91,563
-87,595
-85,026
-83,629
-83,229
-83,696
-84,819
-86,413
-88,325
-90,408
-92,554
-94,665
-96,609
-98,279
-99,599
-100,516
-101,016
-101,092
-100,74
-99,985
-98,861
-97,406
-95,665
-93,675
-91,469
-89,099
-86,619
-84,088
-81,572
-79,113
-76,74
-74,475
-72,326
-70,297
-68,386
-66,579
-64,858
-63,21
-61,624
-60,091
-58,607
-57,16
-55,734
-54,317
-52,894
-51,455
-49,992
-48,495
-46,958
-45,378
-43,753
-42,084
-40,375
-38,626
-36,835
-35,003
-33,127
-31,204
-29,233
-27,211
-25,135
-23,004
-20,819
-18,584
-16,303
-13,986
-11,64
-9,276
-6,906
-4,538
-2,184
0,147
2,444
4,699
6,903
9,041
11,099
13,055
14,893
16,601
18,172
19,604
20,904
22,084
23,159
24,148
25,059
25,896
26,648
27,296
27,816
28,181
28,378
28,408
28,269
27,957
27,465
26,776
25,864
24,689
23,207
21,361
19,117
16,461
13,41
10,014
6,338
2,465
-1,538
-5,625
-9,751
-13,879
-17,966
-21,969
-25,829
-29,478
-32,83
-35,784
-38,259
-40,204
-41,604
-42,489
-42,915
-42,969
-42,72
-42,225
-41,53
-40,667
-39,67
-38,565
-37,389
-36,18
-34,998
-33,923
-33,02
-32,341
-31,904
-31,7
-31,691
-31,818
-32,03
-32,284
-32,545
-32,797
-33,027
-33,228
-33,399
-33,539
-33,637
-33,665
-33,602
-33,426
-33,13
-32,721
-32,219
-31,652
-31,046
-30,426
-29,811
-29,212
-28,635
-28,079
-27,538
-27,003
-26,468
-25,931
-25,392
-24,853
-24,314
-23,771
-23,218
-22,65
-22,058
-21,437
-20,779
-20,081
-19,34
-18,558
-17,735
-16,878
-15,989
-15,074
-14,136
-13,178
-12,202
-11,213
-10,213
-9,204
-8,19
-7,174
-6,161
-5,157
-4,167
-3,195
-2,25
-1,336
-0,46
0,369
1,147
1,865
2,517
3,098
3,599
4,016
4,343
4,576
4,71
4,742
4,669
4,489
4,201
3,804
3,301
2,691
1,979
1,167
0,259
-0,74
-1,824
-2,989
-4,228
-5,535
-6,902
-8,32
-9,782
-11,278
-12,797
-14,33
-15,864
-17,389
-18,893
-20,364
-21,79
-23,161
-24,465
-25,693
-26,834
-27,88
-28,822
-29,654
-30,37
-30,962
-31,428
-31,764
-31,964
-32,027
-31,951
-31,734
-31,375
-30,878
-30,241
-29,47
-28,57
-27,548
-26,411
-25,166
-23,814
-22,361
-20,811
-19,173
-17,46
-15,685
-13,858
-11,989
-10,093
-8,181
-6,26
-4,327
-2,359
-0,33
1,78
3,99
6,302
8,725
11,268
13,946
16,776
19,766
22,913
26,217
29,687
33,322
37,105
40,974
44,804
48,471
51,86
54,876
57,477
59,598
61,15
62,058
62,227
61,586
60,13
57,783
54,395
49,98
44,713
39,019
33,698
29,491
26,956
26,701
29,18
34,379
41,852
50,462
58,328
63,733
65,345
62,154
54,046
42,009
28,155
15,788
9,139
12,781
30,666
65,601
119,119
188,793
270,082
359,749
451,378
541,457
627,065
695,56
738,158
745,851
710,126
640,311
546,944
440,385
334,918
233,696
138,975
56,294
-12,268
-62,993
-93,749
-106,682
-104,859
-92,345
-73,541
-52,695
-33,642
-18,761
-9,107
-4,603
-4,232
-6,77
-10,95
-15,08
-17,546
-17,531
-14,852
-9,895
-3,434
3,846
11,373
18,457
24,42
28,893
31,756
33,087
33,121
32,039
29,961
27,076
23,634
19,845
15,905
11,99
8,216
4,695
1,53
-1,214
-3,496
-5,296
-6,626
-7,507
-7,953
-7,978
-7,589
-6,818
-5,744
-4,448
-3,008
-1,504
0,002
1,456
2,806
4,025
5,108
6,057
6,888
7,615
8,245
8,778
9,212
9,554
9,832
10,071
10,293
10,518
10,763
11,047
11,392
11,811
12,304
12,869
13,501
14,2
14,97
15,814
16,734
17,731
18,803
19,949
21,168
22,457
23,814
25,232
26,701
28,216
29,772
31,361
32,976
34,608
36,247
37,881
39,5
41,093
42,646
44,146
45,579
46,933
48,194
49,351
50,393
51,307
52,083
52,711
53,183
53,491
53,626
53,583
53,355
52,938
52,329
51,524
50,523
49,325
47,929
46,338
44,556
42,586
40,433
38,104
35,607
32,949
30,139
27,189
24,109
20,91
17,604
14,205
10,725
7,177
3,574
-0,071
-3,746
-7,438
-11,137
-14,83
-18,507
-22,158
-25,773
-29,344
-32,862
-36,318
-39,707
-43,022
-46,258
-49,408
-52,47
-55,44
-58,314
-61,091
-63,768
-66,346
-68,823
-71,2
-73,479
-75,659
-77,745
-79,737
-81,638
-83,453
-85,183
-86,831
-88,402
-89,896
-91,318
-92,669
-93,953
-95,17
-96,323
-97,414
-98,443
-99,412
-100,321
-101,172
-101,964
-102,697
-103,373
-103,991
-104,552
-105,055
-105,501
-105,89
-106,223
-106,499
-106,719
-106,884
-106,992
-107,046
-107,044
-106,988
-106,878
-106,716
-106,501
-106,237
-105,924
-105,566
-105,163
-104,72
-104,239
-103,724
-103,18
-102,611
-102,023
-101,42
-100,808
-100,194
-99,582
-98,979
-98,388
-97,816
-97,266
-96,744
-96,251
-95,792
-95,37
-94,988
-94,647
-94,352
-94,103
-93,903
-93,752
-93,651
-93,603
-93,605
-93,659
-93,765
-93,92
-94,126
-94,379
-94,678
-95,021
-95,404
-95,823
-96,272
-96,745
-97,235
-97,732
-98,229
-98,718
-99,192
-99,644
-100,067
-100,456
-100,809
-101,122
-101,392
-101,613
-101,778
-101,881
-101,917
-101,879
-101,759
-101,549
-101,243
-100,834
-100,322
-99,707
-98,984
-98,149
-97,19
-96,104
-94,892
-93,562
-92,122
-90,584
-88,963
-87,283
-85,582
-83,895
-82,254
-80,677
-79,16
-77,707
-76,319
-74,995
-73,742
-72,544
-71,364
-70,171
-68,936
-67,627
-66,214
-64,649
-62,846
-60,74
-58,278
-55,436
-52,233
-48,679
-44,779
-40,554
-36,033
-31,279
-26,399
-21,479
-16,58
-11,769
-7,096
-2,632
1,499
5,205
8,42
11,101
13,249
14,836
15,807
16,123
15,786
14,856
13,431
11,561
9,234
6,437
3,131
-0,666
-4,93
-9,76
-15,165
-21,036
-27,131
-32,922
-37,85
-41,539
-43,585
-43,509
-41,215
-36,957
-31,423
-26,123
-22,535
-21,66
-24,516
-31,896
-43,731
-59,109
-76,046
-90,936
-99,835
-99,333
-85,934
-56,65
-10,045
53,842
133,23
223,631
319,116
413,512
499,276
568,929
616,974
638,697
632,974
601,868
546,358
470,45
376,574
267,625
156,195
52,517
-31,277
-83,631
-110,508
-118,199
-113,431
-107,106
-97,943
-85,028
-71,941
-58,584
-48,133
-43,505
-43,421
-46,645
-51,945
-57,33
-61,162
-62,765
-61,697
-57,935
-52,28
-45,493
-38,102
-30,841
-24,413
-19,126
-15,198
-12,661
-11,262
-10,823
-11,187
-12,123
-13,439
-14,954
-16,496
-17,929
-19,125
-19,972
-20,386
-20,304
-19,696
-18,561
-16,9
-14,736
-12,12
-9,095
-5,719
-2,051
1,866
5,967
10,183
14,442
18,665
22,789
26,776
30,591
34,212
37,627
40,828
43,817
46,612
49,22
51,648
53,902
55,984
57,901
59,667
61,293
62,794
64,18
65,463
66,653
67,76
68,794
69,763
70,671
71,524
72,328
73,092
73,824
74,535
75,232
75,924
76,619
77,325
78,048
78,795
79,568
80,37
81,203
82,069
82,967
83,896
84,854
85,839
86,846
87,873
88,913
89,961
91,01
92,05
93,076
94,076
95,043
95,966
96,836
97,642
98,375
99,026
99,586
100,046
100,398
100,634
100,747
100,73
100,577
100,281
99,837
99,243
98,494
97,59
96,528
95,309
93,932
92,401
90,717
88,883
86,903
84,781
82,524
80,136
77,626
75,001
72,268
69,437
66,516
63,516
60,445
57,315
54,133
50,911
47,657
44,382
41,095
37,805
34,521
31,254
28,011
24,802
21,636
18,52
15,462
12,47
9,551
6,712
3,958
1,296
-1,269
-3,732
-6,089
-8,335
-10,468
-12,485
-14,383
-16,162
-17,819
-19,355
-20,769
-22,063
-23,236
-24,291
-25,228
-26,05
-26,758
-27,357
-27,847
-28,234
-28,521
-28,711
-28,81
-28,821
-28,751
-28,603
-28,383
-28,098
-27,753
-27,353
-26,905
-26,415
-25,888
-25,331
-24,75
-24,151
-23,539
-22,92
-22,3
-21,685
-21,078
-20,487
-19,914
-19,366
-18,846
-18,359
-17,908
-17,498
-17,132
-16,813
-16,544
-16,328
-16,166
-16,061
-16,013
-16,024
-16,095
-16,226
-16,418
-16,669
-16,979
-17,348
-17,775
-18,259
-18,798
-19,391
-20,036
-20,73
-21,472
-22,257
-23,084
-23,948
-24,846
-25,773
-26,726
-27,699
-28,688
-29,687
-30,691
-31,693
-32,69
-33,673
-34,636
-35,574
-36,479
-37,347
-38,17
-38,942
-39,657
-40,309
-40,892
-41,401
-41,83
-42,173
-42,426
-42,583
-42,641
-42,596
-42,445
-42,185
-41,816
-41,338
-40,751
-40,059
-39,265
-38,375
-37,392
-36,324
-35,178
-33,96
-32,677
-31,336
-29,944
-28,512
-27,05
-25,568
-24,08
-22,6
-21,14
-19,716
-18,337
-17,01
-15,742
-14,542
-13,422
-12,402
-11,498
-10,721
-10,088
-9,615
-9,31
-9,18
-9,212
-9,374
-9,644
-9,996
-10,414
-10,897
-11,431
-11,999
-12,575
-13,128
-13,635
-14,088
-14,463
-14,732
-14,877
-14,918
-14,933
-15,036
-15,335
-15,898
-16,75
-17,923
-19,483
-21,509
-24,113
-27,385
-31,338
-36,051
-41,667
-48,201
-55,545
-63,305
-70,691
-76,963
-81,553
-83,862
-83,555
-80,736
-75,765
-69,838
-64,853
-62,428
-64,062
-70,93
-82,974
-99,139
-117,555
-134,645
-146,003
-147,583
-134,998
-104,737
-55,656
11,796
95,216
189,27
287,346
382,376
465,845
529,903
569,032
579,044
558,32
508,941
434,911
341,866
237,929
131,585
30,336
-58,4
-128,979
-178,939
-207,723
-216,629
-209,252
-190,02
-163,439
-134,783
-108,743
-88,038
-74,109
-67,178
-66,235
-69,885
-76,599
-84,256
-90,799
-95,137
-96,866
-96,177
-93,706
-90,052
-85,752
-81,507
-78,04
-75,725
-74,671
-74,777
-75,771
-77,439
-79,636
-82,184
-84,884
-87,589
-90,169
-92,511
-94,575
-96,327
-97,72
-98,744
-99,39
-99,649
-99,547
-99,125
-98,418
-97,467
-96,31
-94,97
-93,489
-91,911
-90,288
-88,677
-87,118
-85,634
-84,245
-82,962
-81,791
-80,734
-79,782
-78,914
-78,112
-77,365
-76,66
-75,992
-75,349
-74,715
-74,073
-73,409
-72,709
-71,962
-71,157
-70,285
-69,335
-68,302
-67,184
-65,979
-64,686
-63,302
-61,823
-60,248
-58,576
-56,807
-54,942
-52,983
-50,93
-48,791
-46,57
-44,274
-41,914
-39,496
-37,03
-34,528
-32,001
-29,461
-26,919
-24,391
-21,888
-19,425
-17,018
-14,681
-12,428
-10,276
-8,24
-6,332
-4,569
-2,963
-1,528
-0,274
0,786
1,642
2,285
2,705
2,897
2,854
2,571
2,044
1,272
0,254
-1,009
-2,515
-4,26
-6,24
-8,448
-10,877
-13,52
-16,366
-19,406
-22,628
-26,021
-29,572
-33,267
-37,091
-41,03
-45,068
-49,189
-53,377
-57,614
-61,885
-66,173
-70,46
-74,732
-78,971
-83,163
-87,291
-91,343
-95,303
-99,159
-102,899
-106,512
-109,988
-113,318
-116,493
-119,509
-122,357
-125,035
-127,539
-129,866
-132,015
-133,986
-135,778
-137,393
-138,832
-140,099
-141,196
-142,13
-142,905
-143,529
-144,008
-144,351
-144,567
-144,665
-144,654
-144,544
-144,345
-144,066
-143,716
-143,306
-142,845
-142,342
-141,807
-141,247
-140,673
-140,09
-139,507
-138,928
-138,358
-137,802
-137,262
-136,741
-136,239
-135,757
-135,298
-134,862
-134,453
-134,07
-133,715
-133,388
-133,088
-132,815
-132,563
-132,327
-132,099
-131,871
-131,637
-131,392
-131,132
-130,853
-130,551
-130,222
-129,868
-129,486
-129,072
-128,615
-128,097
-127,51
-126,853
-126,132
-125,357
-124,543
-123,698
-122,838
-121,987
-121,159
-120,36
-119,582
-118,797
-117,987
-117,147
-116,283
-115,42
-114,573
-113,738
-112,901
-112,042
-111,139
-110,169
-109,089
-107,824
-106,32
-104,548
-102,514
-100,274
-97,875
-95,346
-92,71
-89,967
-87,134
-84,258
-81,394
-78,602
-75,951
-73,511
-71,387
-69,738
-68,713
-68,418
-68,912
-70,178
-72,19
-74,928
-78,364
-82,467
-87,174
-92,378
-97,955
-103,775
-109,697
-115,57
-121,208
-126,356
-130,759
-134,198
-136,5
-137,571
-137,349
-135,774
-132,824
-128,506
-122,877
-116,058
-108,192
-99,44
-89,98
-80,007
-69,749
-59,498
-49,547
-40,159
-31,581
-23,981
-17,499
-12,268
-8,373
-5,86
-4,732
-4,939
-6,392
-8,996
-12,623
-17,135
-22,388
-28,18
-34,311
-40,587
-46,788
-52,765
-58,418
-63,651
-68,426
-72,736
-76,524
-79,83
-82,807
-85,481
-87,791
-89,481
-89,961
-88,702
-85,412
-79,736
-71,394
-60,557
-47,659
-33,9
-21,442
-12,276
-8,042
-10,119
-18,965
-33,844
-53,26
-74,041
-91,307
-100,332
-96,437
-75,545
-35,7
23,13
99,334
188,453
283,553
377,203
460,948
526,508
567,923
580,84
562,952
515,577
442,888
350,554
246,458
139,309
36,668
-54,115
-127,016
-179,184
-210,085
-220,922
-215,17
-197,399
-172,109
-144,523
-119,475
-99,817
-87,058
-81,518
-82,155
-87,402
-95,601
-104,535
-112,051
-116,983
-118,82
-117,633
-114,056
-108,776
-102,433
-95,825
-89,706
-84,446
-80,176
-76,834
-74,191
-72,074
-70,352
-68,85
-67,407
-65,929
-64,347
-62,602
-60,65
-58,403
-55,778
-52,735
-49,246
-45,306
-40,925
-36,12
-30,921
-25,376
-19,537
-13,451
-7,161
-0,704
5,884
12,559
19,269
25,96
32,593
39,14
45,585
51,923
58,136
64,215
70,155
75,96
81,648
87,236
92,742
98,183
103,554
108,853
114,084
119,245
124,313
129,259
134,039
138,615
143,001
147,218
151,299
155,276
159,162
162,972
166,72
170,416
174,091
177,767
181,453
185,182
189,018
193,041
197,36
202,051
207,111
212,515
218,213
224,137
230,225
236,391
242,552
248,635
254,575
260,325
265,849
271,087
275,943
280,304
284,027
287,009
289,216
290,633
291,282
291,212
290,485
289,203
287,466
285,351
282,914
280,192
277,214
274,029
270,704
267,309
263,936
260,659
257,519
254,55
251,755
249,122
246,628
244,226
241,889
239,601
237,354
235,151
232,99
230,859
228,744
226,629
224,477
222,261
219,954
217,537
215,021
212,404
209,675
206,818
203,782
200,526
197,031
193,272
189,242
184,963
180,464
175,808
171,099
166,424
161,873
157,523
153,414
149,611
146,199
143,273
140,963
139,389
138,636
138,796
139,951
142,114
145,267
149,336
154,165
159,617
165,56
171,846
178,386
185,08
191,813
198,483
204,962
211,1
216,769
221,824
226,113
229,554
232,105
233,765
234,637
234,832
234,47
233,706
232,633
231,31
229,797
228,131
226,36
224,581
222,892
221,399
220,248
219,556
219,412
219,884
220,942
222,485
224,378
226,456
228,595
230,739
232,847
234,88
236,812
238,581
240,101
241,289
241,994
242,027
241,234
239,479
236,722
233,049
228,604
223,561
218,101
212,343
206,384
200,326
194,236
188,175
182,244
176,547
171,257
166,639
162,915
160,266
158,815
158,536
159,318
161,013
163,408
166,3
169,528
172,922
176,355
179,743
182,977
185,944
188,473
190,288
191,144
190,829
189,172
186,139
181,738
176,01
169,185
161,53
153,253
144,606
135,731
126,644
117,537
108,648
99,83
90,981
82,513
74,604
67,417
61,769
55,925
48,188
41,047
35,169
35,059
46,078
61,971
78,57
89,729
87,046
77,749
67,887
61,5
65,434
74,487
83,416
91,007
94,055
94,248
93,868
92,458
90,356
87,535
83,623
79,016
74,067
68,795
63,325
57,88
52,609
47,593
42,878
38,42
34,201
30,323
26,873
23,869
21,26
18,942
16,807
14,764
12,753
10,627
8,129
5,1
1,542
-2,304
-5,873
-8,602
-10,137
-10,029
-7,797
-3,383
3,006
10,48
17,337
22,154
23,82
21,207
13,735
1,805
-13,393
-28,993
-40,831
-45,485
-39,118
-17,633
21,267
78,763
152,733
235,992
323,19
410,919
496,279
580,482
656,063
709,339
730,57
707,351
640,286
539,867
412,514
274,202
140,643
26,1
-50,031
-81,588
-75,871
-48,291
-18,487
2,107
13,162
20,613
29,02
38,812
47,355
50,479
47,28
39,754
29,912
20,18
12,325
6,692
3,524
2,791
3,745
5,719
8,159
10,302
11,622
11,964
11,207
9,507
7,355
4,942
2,408
0,4
-0,67
-0,64
0,995
3,893
7,038
11,011
16,662
23,446
31,46
39,986
40,95
36,008
52,537
53,454
-41,335
-96,145
68,703
239,134
170,114
39,602
27,037
42,017
28,208
21,906
21,615
17,771
12,132
2,7
-7,072
-15,209
-23,004
-29,711
-35,414
-40,566
-44,57
-46,882
-47,372
-46,076
-42,778
-37,045
-28,922
-18,633
-6,276
7,136
22,181
41,751
64,606
87,464
105,132
107,499
95,161
78,297
67,326
77,262
109,471
150,154
188,147
211,579
217,696
215,843
211,441
207,293
203,74
196,993
185,991
172,136
157,06
142,544
129,704
119,638
113,419
111,667
114,719
121,93
131,879
143,792
157,18
171,234
185,364
198,894
210,959
221,546
231,389
240,904
250,322
259,815
269,218
278,49
287,895
297,346
306,263
314,108
320,494
325,22
328,646
331,449
333,83
335,714
337,393
339,034
340,216
340,737
339,843
335,495
328,909
322,06
313,185
302,977
288,058
263,733
237,703
216,092
206,074
216,146
237,862
262,881
285,351
297,203
302,26
304,153
303,04
301,641
298,573
292,768
285,44
276,501
266,386
255,897
245,01
233,697
221,883
209,026
194,824
179,35
162,793
145,424
127,454
109,008
90,232
71,434
52,935
34,966
17,71
1,252
-14,306
-28,796
-42,078
-54,073
-64,776
-74,277
-82,699
-90,131
-96,655
-102,367
-107,378
-111,854
-115,95
-119,764
-123,377
-126,858
-130,295
-133,823
-137,562
-141,58
-145,907
-150,525
-155,4
-160,518
-165,855
-171,36
-176,966
-182,578
-188,121
-193,574
-198,939
-204,23
-209,456
-214,592
-219,624
-224,553
-229,389
-234,161
-238,917
-243,703
-248,574
-253,583
-258,75
-264,102
-269,689
-275,534
-281,674
-288,047
-294,449
-300,825
-307,33
-314,307
-322,148
-330,947
-340,336
-349,982
-359,981
-370,237
-380,247
-388,828
-394,281
-395,883
-394,424
-391,301
-387,433
-383,586
-380,776
-381,142
-388,053
-403,483
-426,774
-455,405
-486,87
-519,512
-551,49
-580,153
-601,607
-612,083
-612,57
-607,271
-597,764
-585,836
-569,011
-542,243
-510,591
-481,989
-467,6
-480,994
-523,641
-586,006
-650,363
-696,246
-710,156
-694,838
-666,922
-642,844
-636,199
-648,073
-667,1
-685,6
-698,546
-705,26
-710,754
-716,698
-722,235
-726,909
-729,594
-730,084
-729,195
-727,017
-723,38
-718,549
-712,979
-707,184
-701,509
-695,818
-689,817
-683,605
-677,277
-670,761
-663,751
-655,509
-645,686
-634,879
-623,965
-613,696
-605,011
-598,598
-595,208
-596,357
-602,95
-614,663
-630,852
-650,378
-671,657
-693,932
-716,495
-737,611
-755,928
-770,75
-781,213
-787,369
-789,826
-787,865
-780,665
-768,615
-752,276
-732,603
-711,402
-689,797
-668,637
-650,301
-637,412
-631,397
-633,03
-642,15
-657,429
-677,357
-699,908
-721,661
-738,721
-747,51
-744,773
-728,164
-695,868
-648,856
-591,839
-526,966
-455,353
-376,606
-285,167
-186,966
-98,683
-35,305
-15,415
-42,779
-101,855
-178,991
-259,071
-333,561
-406,165
-477,292
-544,777
-606,319
-657,893
-697,356
-723,043
-728,255
-704,836
-650,513
-572,524
-495,039
-446,462
-442,711
-485,568
-550,862
-606,19
-633,693
-623,659
-585,798
-536,289
-477,803
-415,216
-353,326
-300,172
-273,384
-280,711
-315,273
-359,694
-392,753
-405,842
-404,335
-397,169
-392,688
-387,658
-371,292
-347,135
-321,966
-308,258
-325,387
-364,891
-410,72
-451,549
-464,487
-449,774
-420,449
-377,235
-336,602
-312,193
-303,797
-321,653
-361,206
-404,372
-443,017
-465,308
-467,169
-457,609
-440,44
-419,225
-396,826
-371,243
-342,847
-313,657
-285,563
-262,181
-246,732
-240,6
-244
-255,094
-270,828
-288,854
-306,75
-323,699
-341,347
-359,463
-375,488
-382,472
-367,935
-324,877
-260,114
-193,635
-156,184
-174,312
-248,375
-356,389
-461,65
-522
-520,596
-460,786
-358,484
-245,948
-145,017
-74,621
-50,856
-69,575
-123,187
-189,05
-236,205
-250,835
-225,742
-172,446
-115,844
-69,437
-42,76
-34,755
-33,531
-33,334
-30,626
-24,153
-17,595
-12,164
-7,372
-3,321
0,775
5,274
9,724
14,011
18,255
22,527
27,032
32,095
37,989
44,966
53,274
63,059
74,348
87,133
101,376
117,011
133,968
152,148
171,422
191,622
212,514
233,853
255,365
276,736
297,653
317,784
336,774
354,307
370,139
384,082
396,003
405,798
413,367
418,654
421,65
422,397
420,991
417,541
412,174
405,062
396,423
386,517
375,666
364,172
352,279
340,221
328,21
316,452
305,163
294,519
284,641
275,627
267,563
260,518
254,548
249,668
245,838
242,979
240,969
239,694
239,062
238,967
239,293
239,912
240,675
241,465
242,207
242,822
243,228
243,355
243,139
242,552
241,603
240,316
238,726
236,869
234,775
232,494
230,085
227,622
225,191
222,856
220,658
218,645
216,863
215,349
214,135
213,232
212,632
212,326
212,307
212,564
213,089
213,864
214,867
216,073
217,45
218,974
220,629
222,401
224,275
226,241
228,286
230,405
232,601
234,878
237,243
239,704
242,263
244,915
247,653
250,469
253,359
256,313
259,312
262,333
265,358
268,379
271,404
274,44
277,488
280,541
283,58
286,584
289,547
292,464
295,341
298,188
300,988
303,736
306,462
309,186
311,941
314,777
317,654
320,51
323,4
326,336
329,302
332,366
335,469
338,396
341,118
343,671
345,71
346,956
347,615
347,513
346,43
345,234
342,525
336,476
329,505
322,408
318,929
326,184
340,231
354,786
363,404
353,588
326,841
295,302
267,224
255,549
263,955
280,229
297,067
307,225
305,325
298,683
291,996
286,621
285,483
286,212
286,695
287,582
288,431
289,325
290,725
292,184
293,359
294,328
294,959
295,394
295,877
296,23
296,586
296,18
294,387
291,895
288,84
288,595
290,629
296,839
324,667
339,103
279,743
226,176
278,035
344,578
333,883
304,666
301,567
303,358
303,054
304,095
304,007
302,332
299,069
294,555
289,502
283,858
277,652
270,992
263,996
256,946
250,085
243,596
237,75
232,828
229,356
228,146
229,639
233,964
241,333
251,74
264,994
281,031
298,825
315,997
331,193
344,056
353,806
362,585
372,735
383,195
396,626
413,219
428,983
447,618
471,276
505,197
563,076
645,751
744,851
842,598
908,998
926,649
892,06
813,261
708,532
589,067
463,418
341,925
237,043
166,434
139,485
150,861
184,599
221,505
250,413
272,175
294,193
321,384
354,07
388,748
419,663
444,03
461,238
470,635
473,223
470,255
462,029
449,418
433,52
415,381
397,076
380,79
367,543
357,791
351,77
349,245
349,962
353,4
358,278
363,443
368,31
372,545
376,138
379,254
381,939
384,381
386,984
389,97
393,366
397,089
400,885
404,497
407,74
410,412
412,319
413,318
413,307
412,248
410,155
407,032
402,872
397,672
391,452
384,287
376,292
367,599
358,341
348,665
338,73
328,704
318,751
309,036
299,715
290,904
282,707
275,216
268,522
262,731
257,917
254,103
251,279
249,407
248,444
248,343
249,033
250,41
252,357
254,739
257,419
260,303
263,297
266,307
269,242
271,987
274,445
276,554
278,26
279,508
280,25
280,447
280,082
279,191
277,817
276,016
273,859
271,387
268,648
265,694
262,563
259,294
255,931
252,511
249,089
245,757
242,592
239,651
236,964
234,516
232,279
230,212
228,239
226,276
224,209
221,934
219,378
216,476
213,15
209,304
204,801
199,471
193,167
185,774
177,194
167,372
156,273
143,901
130,317
115,639
100,032
83,654
66,632
49,098
31,206
13,147
-4,846
-22,526
-39,685
-56,126
-71,656
-86,112
-99,35
-111,276
-121,864
-131,146
-139,2
-146,099
-151,907
-156,706
-160,603
-163,739
-166,29
-168,415
-170,24
-171,894
-173,513
-175,22
-177,128
-179,311
-181,795
-184,581
-187,65
-190,982
-194,56
-198,344
-202,28
-206,295
-210,304
-214,24
-218,063
-221,731
-225,196
-228,419
-231,364
-234,015
-236,379
-238,465
-240,281
-241,835
-243,139
-244,214
-245,088
-245,794
-246,369
-246,836
-247,209
-247,501
-247,721
-247,877
-247,972
-248,001
-247,953
-247,822
-247,602
-247,289
-246,88
-246,366
-245,739
-244,987
-244,103
-243,079
-241,907
-240,584
-239,107
-237,473
-235,683
-233,739
-231,646
-229,408
-227,028
-224,508
-221,854
-219,067
-216,154
-213,118
-209,964
-206,699
-203,33
-199,864
-196,309
-192,675
-188,969
-185,202
-181,382
-177,52
-173,625
-169,706
-165,776
-161,846
-157,926
-154,029
-150,167
-146,351
-142,595
-138,911
-135,309
-131,801
-128,396
-125,104
-121,934
-118,895
-115,992
-113,234
-110,625
-108,172
-105,88
-103,752
-101,794
-100,008
-98,397
-96,963
-95,708
-94,633
-93,738
-93,023
-92,487
-92,131
-91,955
-91,958
-92,138
-92,493
-93,022
-93,721
-94,586
-95,61
-96,785
-98,106
-99,568
-101,17
-102,914
-104,799
-106,825
-108,99
-111,297
-113,742
-116,323
-119,031
-121,853
-124,782
-127,81
-130,936
-134,162
-137,483
-140,888
-144,36
-147,877
-151,418
-154,965
-158,494
-161,985
-165,424
-168,807
-172,147
-175,463
-178,76
-182,046
-185,31
-188,521
-191,668
-194,736
-197,725
-200,674
-203,587
-206,435
-209,178
-211,728
-214,017
-216,041
-217,704
-218,853
-219,472
-219,591
-219,436
-219,502
-219,968
-220,718
-221,655
-222,578
-223,215
-223,378
-222,378
-219,084
-213,174
-204,941
-194,979
-184,29
-173,521
-163,042
-154,005
-147,987
-145,463
-146,256
-149,76
-154,939
-161,716
-170,41
-180,272
-190,211
-200,053
-209,718
-218,937
-227,193
-232,437
-232,081
-224,304
-207,049
-177,569
-133,69
-76,371
-9,409
63,415
139,166
220,886
314,104
415,409
514,779
594,555
633,85
625,645
572,825
483,908
376,12
261,174
151,624
69,028
23,907
22,369
58,358
100,081
125,028
119,006
77,247
22,099
-31,266
-76,402
-106,586
-130,286
-151,267
-165,616
-173,542
-171,327
-156,65
-132,13
-99,255
-59,928
-17,982
22,817
59,392
88,813
109,712
122,554
127,947
126,665
120,541
111,873
102,71
95,221
90,709
89,267
90,831
95,082
101,17
108,166
115,315
121,853
127,401
132,013
135,755
138,944
142,092
145,542
149,552
154,216
159,419
165,233
171,781
178,85
186,208
193,896
201,868
210,347
219,695
229,479
239,199
248,815
258,171
266,933
274,958
281,698
286,522
289,944
292,511
294,339
295,735
296,909
297,897
299,208
301,374
304,013
306,766
309,514
311,981
314,179
316,206
317,825
318,82
319,371
319,62
319,668
319,681
319,615
319,407
319,127
318,824
318,494
318,155
317,798
317,407
317,029
316,709
316,471
316,346
316,342
316,461
316,719
317,122
317,677
318,392
319,268
320,306
321,506
322,867
324,385
326,057
327,876
329,832
331,913
334,104
336,393
338,767
341,211
343,707
346,237
348,779
351,314
353,822
356,281
358,667
360,957
363,124
365,145
366,998
368,66
370,105
371,308
372,247
372,906
373,267
373,315
373,029
372,384
371,375
370,004
368,246
366,09
363,522
360,521
357,102
353,297
349,086
344,449
339,465
334,189
328,668
322,977
317,085
310,917
304,546
298,078
291,242
283,719
275,706
267,201
258,17
249,32
238,819
224,903
210,144
195,296
185,09
185,21
189,435
193,69
191,808
175,226
151,668
127,903
108,557
100,933
99,615
98,843
97,256
92,018
84,976
77,79
69,862
62,125
55,458
51,527
50,486
48,599
45,611
44,446
49,647
69,797
101,759
131,164
146,233
135,01
100,421
57,645
11,88
-34,551
-91,716
-161,026
-202,678
-221,009
-262,403
-248,828
-36,558
307,835
503,022
386,653
122,338
-12,023
32,575
87,537
65,195
28,165
12,613
-5,357
-27,869
-41,905
-47,389
-46,553
-41,502
-35,295
-28,64
-22,196
-16,788
-12,739
-11,232
-11,23
-10,693
-10,99
-12,301
-18,906
-36,154
-58,101
-80,534
-96,933
-98,965
-94,449
-89,983
-90,128
-102,027
-120,378
-139,925
-159,529
-175,986
-190,982
-206,663
-222,369
-238,265
-254,167
-269,604
-284,868
-300,148
-315,274
-330,136
-344,725
-359,054
-373,115
-386,906
-400,402
-413,561
-426,458
-439,21
-451,865
-464,424
-476,842
-489,022
-500,881
-512,383
-523,479
-534,094
-544,128
-553,433
-561,884
-569,388
-575,845
-581,137
-585,126
-587,672
-588,669
-588,117
-586,11
-582,768
-578,228
-572,563
-565,787
-557,991
-549,387
-540,199
-530,58
-520,642
-510,371
-499,98
-490,02
-480,751
-472,412
-465,165
-459,106
-455,707
-455,62
-458,133
-461,586
-459,88
-455,057
-446,587
-418,074
-408,096
-479,874
-558,543
-501,41
-351,835
-300,048
-375,374
-462,958
-547,282
-606,169
-567,056
-510,93
-531,953
-569,429
-574,746
-567,379
-552,9
-530,828
-506,952
-483,106
-461,127
-442,626
-427,668
-416,939
-410,79
-407,235
-403,961
-400,255
-395,799
-390,594
-385,302
-380,565
-377,455
-377,863
-383,448
-393,074
-402,6
-409,777
-413,845
-416,152
-421,989
-429,318
-430,19
-415,557
-370,339
-288,171
-175,68
-46,198
72,876
153,138
180,529
151,563
77,025
-23,908
-140,123
-264,656
-388,845
-501,985
-589,338
-639,375
-653,553
-647,02
-637,214
-635,679
-644,912
-657,087
-665,48
-669,492
-671,295
-675,433
-683,879
-694,854
-705,935
-714,945
-720,894
-723,658
-723,269
-719,942
-714,211
-706,986
-699,356
-692,283
-686,3
-681,656
-678,508
-676,933
-677,029
-678,866
-682,369
-687,382
-693,768
-701,399
-710,149
-719,885
-730,365
-741,28
-752,361
-763,397
-774,261
-784,896
-795,23
-805,178
-814,666
-823,618
-832,005
-839,832
-847,108
-853,852
-860,114
-865,972
-871,551
-877,017
-882,501
-888,095
-893,852
-899,789
-905,92
-912,262
-918,819
-925,588
-932,561
-939,72
-947,057
-954,563
-962,216
-969,978
-977,794
-985,588
-993,297
-1000,87
-1008,266
-1015,455
-1022,412
-1029,115
-1035,547
-1041,693
-1047,535
-1053,052
-1058,21
-1062,97
-1067,284
-1071,102
-1074,381
-1077,083
-1079,174
-1080,632
-1081,424
-1081,531
-1080,94
-1079,635
-1077,606
-1074,86
-1071,395
-1067,224
-1062,39
-1056,939
-1050,94
-1044,499
-1037,703
-1030,644
-1023,424
-1016,118
-1008,803
-1001,545
-994,367
-987,294
-980,347
-973,513
-966,784
-960,139
-953,486
-946,738
-939,782
-932,423
-924,492
-915,811
-906,174
-895,428
-883,422
-869,993
-855,01
-838,349
-819,866
-799,496
-777,169
-752,783
-726,47
-698,49
-669,253
-639,444
-609,68
-580,406
-552,065
-525,04
-499,308
-474,548
-450,174
-425,289
-399,366
-372,348
-344,541
-316,554
-289,549
-265,371
-246,09
-233,823
-230,199
-236,179
-252,045
-277,703
-312,268
-353,514
-398,969
-446,102
-492,302
-535,32
-573,009
-602,959
-623,629
-634,958
-636,927
-629,676
-613,652
-588,993
-556,603
-518,174
-474,431
-425,177
-370,458
-310,407
-245,772
-178,345
-109,123
-38,817
30,603
96,746
157,22
209,941
254,521
292,257
324,238
352,558
380,888
412,74
452,447
502,625
562,078
631,208
711,358
804,427
915,516
1039,438
1161,379
1266,135
1334,914
1363,612
1364,184
1347,227
1325,466
1303,557
1275,049
1238,23
1194,101
1145,062
1097,062
1053,12
1013,337
977,501
944,443
912,357
879,143
843,386
804,626
762,831
718,654
673,512
629,319
589,252
557,491
537,363
531,244
541,098
568,163
612,456
672,713
745,716
826,652
910,804
993,829
1071,774
1141,196
1199,639
1245,977
1280,88
1306,582
1325,841
1341,568
1356,24
1371,956
1390,331
1412,151
1437,333
1465,02
1493,887
1522,412
1549,542
1574,603
1597,182
1617,288
1635,116
1650,982
1665,389
1678,897
1691,762
1703,986
1715,406
1725,671
1734,437
1741,381
1746,129
1748,243
1747,313
1742,99
1734,963
1723,002
1706,933
1686,554
1661,632
1632,182
1598,451
1560,761
1519,581
1475,173
1427,488
1376,77
1323,581
1268,19
1210,714
1151,242
1089,613
1026,442
963,242
901,044
840,497
782,566
728,154
678,36
634,724
597,543
565,914
539,413
517,681
500,12
486,26
474,958
464,572
454,741
445,995
438,606
433,118
429,882
429,06
431,699
438,787
449,962
464,153
479,834
494,803
507,437
516,306
519,17
514,402
501,602
480,964
453,741
422,116
387,571
351,382
315,517
281,398
249,936
222,083
197,829
176,392
157,692
141,831
128,22
116,428
105,651
94,186
81,048
65,876
47,785
26,25
1,929
-24,096
-49,602
-70,693
-84,037
-86,822
-75,683
-48,325
-4,443
55,143
127,678
207,745
289,833
368,394
436,005
485,58
512,334
512,168
484,598
434,579
364,374
275,149
169,37
45,331
-90,034
-219,831
-330,965
-408,748
-448,102
-461,849
-458,592
-447,704
-441,457
-438,346
-441,803
-458,022
-479,375
-503,68
-527,24
-541,091
-548,593
-552,236
-551,65
-550,061
-545,77
-536,826
-524,622
-509,88
-493,88
-478,26
-463,385
-449,295
-436,271
-424,414
-413,764
-404,389
-396,215
-389,086
-382,899
-377,546
-372,866
-368,671
-364,689
-360,592
-356,035
-350,713
-344,44
-337,095
-328,585
-318,828
-307,732
-295,239
-281,358
-266,126
-249,583
-231,774
-212,765
-192,658
-171,617
-149,839
-127,473
-104,598
-81,241
-57,39
-33,034
-8,211
17,124
43,137
69,821
97,006
124,506
152,013
179,476
207,221
235,303
263,478
291,811
320,503
349,804
380,24
411,545
442,507
472,346
500,654
526,735
549,95
569,481
584,049
593,535
599,094
601,513
601,364
599,364
596,002
592,115
589,095
587,443
586,755
586,911
587,885
589,745
592,878
597,359
602,9
609,595
617,861
627,938
639,965
653,826
669,117
685,529
702,859
720,811
738,935
756,668
773,596
789,527
804,384
818,154
830,549
840,953
849,037
854,832
858,108
858,495
855,589
848,743
838,124
824,876
809,751
793,128
775,712
758,205
741,5
727,003
714,997
704,518
695,033
686,246
677,743
669,395
660,718
650,658
639,075
626,711
613,995
601,281
588,774
576,273
563,879
552,032
540,737
529,673
518,616
507,311
495,675
483,875
471,946
459,835
447,571
435,211
422,831
410,544
398,406
386,419
374,598
362,949
351,492
340,258
329,263
318,515
308,014
297,753
287,727
277,936
268,377
259,052
249,959
241,09
232,437
223,998
215,767
207,746
199,931
192,313
184,887
177,645
170,583
163,7
156,991
150,447
144,059
137,816
131,707
125,724
119,856
114,094
108,427
102,848
97,349
91,926
86,572
81,28
76,041
70,845
65,681
60,537
55,402
50,265
45,114
39,942
34,739
29,497
24,214
18,88
13,488
8,025
2,477
-3,168
-8,915
-14,765
-20,714
-26,748
-32,848
-38,995
-45,163
-51,335
-57,501
-63,663
-69,835
-76,031
-82,268
-88,554
-94,879
-101,239
-107,631
-114,058
-120,53
-127,069
-133,707
-140,487
-147,457
-154,65
-162,077
-169,72
-177,53
-185,443
-193,378
-201,273
-209,082
-216,766
-224,289
-231,613
-238,697
-245,491
-251,931
-257,942
-263,431
-268,326
-272,582
-276,193
-279,194
-281,65
-283,653
-285,279
-286,591
-287,641
-288,471
-289,125
-289,64
-290,063
-290,441
-290,84
-291,348
-292,044
-292,992
-294,231
-295,758
-297,547
-299,55
-301,724
-304,039
-306,476
-309,022
-311,664
-314,394
-317,209
-320,113
-323,1
-326,136
-329,177
-332,178
-335,102
-337,938
-340,702
-343,417
-346,107
-348,772
-351,396
-353,969
-356,465
-358,887
-361,242
-363,495
-365,61
-367,561
-369,325
-370,981
-372,701
-374,434
-375,932
-376,959
-377,23
-376,756
-375,89
-374,635
-372,777
-370,608
-368,827
-368,432
-370,693
-375,866
-383,026
-391,653
-401,321
-410,811
-418,569
-422,202
-418,613
-406,529
-386,825
-360,416
-328,822
-294,795
-261,179
-232,13
-213,048
-207,125
-215,022
-236,836
-271,009
-313,982
-361,939
-409,346
-448,751
-474,442
-482,564
-469,492
-433,681
-376,239
-299,115
-206,492
-105,439
-2,752
95,198
180,827
247,131
289,43
303,964
288,732
247,438
184,881
103,37
9,541
-92,877
-201,414
-302,476
-386,049
-443,53
-465,712
-459,566
-433,635
-395,742
-357,336
-320,442
-286,163
-256,893
-232,163
-214,791
-206,778
-207,346
-215,02
-226,054
-236,897
-246,086
-252,761
-256,619
-257,639
-255,368
-250,24
-243,84
-237,476
-231,917
-227,508
-224,057
-221,471
-220,056
-219,751
-220,056
-220,55
-220,841
-220,716
-220,26
-219,507
-218,361
-216,81
-214,894
-212,66
-210,218
-207,64
-204,924
-202,076
-199,092
-195,97
-192,738
-189,432
-186,103
-182,81
-179,592
-176,461
-173,428
-170,476
-167,574
-164,675
-161,702
-158,569
-155,219
-151,63
-147,821
-143,845
-139,765
-135,623
-131,445
-127,258
-123,1
-119,033
-115,122
-111,429
-108,047
-105,09
-102,712
-101,084
-100,34
-100,554
-101,754
-103,908
-106,939
-110,78
-115,346
-120,521
-126,183
-132,181
-138,35
-144,557
-150,645
-156,415
-161,644
-166,084
-169,511
-171,775
-172,752
-172,357
-170,572
-167,39
-162,858
-157,098
-150,243
-142,454
-133,929
-124,828
-115,33
-105,662
-96,045
-86,702
-77,852
-69,654
-62,27
-55,869
-50,563
-46,431
-43,502
-41,72
-41,014
-41,295
-42,424
-44,27
-46,69
-49,498
-52,549
-55,723
-58,898
-61,986
-64,891
-67,487
-69,684
-71,426
-72,673
-73,432
-73,724
-73,568
-73,034
-72,212
-71,194
-70,089
-68,971
-67,881
-66,86
-65,931
-65,106
-64,402
-63,82
-63,35
-62,998
-62,775
-62,68
-62,722
-62,883
-63,133
-63,459
-63,851
-64,303
-64,819
-65,404
-66,077
-66,889
-67,927
-69,265
-70,953
-73,012
-75,432
-78,215
-81,359
-84,843
-88,618
-92,592
-96,67
-100,78
-104,867
-108,871
-112,705
-116,244
-119,319
-121,8
-123,607
-124,677
-124,976
-124,446
-123,023
-120,708
-117,575
-113,741
-109,322
-104,399
-99,021
-93,264
-87,254
-81,145
-75,115
-69,295
-63,771
-58,645
-54,021
-50,039
-46,842
-44,498
-42,99
-42,279
-42,342
-43,181
-44,832
-47,285
-50,461
-54,281
-58,66
-63,536
-68,859
-74,526
-80,395
-86,285
-92,02
-97,482
-102,598
-107,296
-111,488
-115,071
-117,925
-119,973
-121,197
-121,552
-120,994
-119,494
-117,052
-113,729
-109,644
-104,956
-99,804
-94,32
-88,641
-82,906
-77,271
-71,888
-66,903
-62,427
-58,553
-55,398
-53,078
-51,676
-51,23
-51,735
-53,139
-55,357
-58,326
-61,946
-66,064
-70,532
-75,18
-79,842
-84,385
-88,699
-92,665
-96,161
-99,069
-101,289
-102,764
-103,446
-103,306
-102,33
-100,488
-97,798
-94,348
-90,226
-85,553
-80,458
-75,03
-69,348
-63,501
-57,564
-51,604
-45,684
-39,84
-34,114
-28,56
-23,23
-18,197
-13,503
-9,147
-5,114
-1,371
2,138
5,445
8,576
11,564
14,418
17,137
19,716
22,133
24,368
26,414
28,273
29,964
31,518
32,953
34,293
35,55
36,72
37,806
38,807
39,734
40,601
41,43
42,245
43,073
43,953
44,93
46,028
47,23
48,482
49,701
50,787
51,677
52,313
52,628
52,569
52,044
50,953
49,233
46,822
43,654
39,648
34,753
28,999
22,673
16,337
10,639
6,191
3,358
2,32
3,034
5,339
8,741
11,667
12,391
9,713
2,765
-6,25
-14,67
-22,986
-28,987
-33,528
-37,913
-32,36
-13,285
23,307
86,403
166,181
256,046
351,214
431,926
491,994
527,487
529,906
505,704
459,815
393,148
312,591
224,761
135,129
54,043
-9,185
-55,196
-85,204
-103,313
-116,651
-123,186
-121,789
-113,726
-98,955
-82,891
-69,925
-60,636
-55,709
-54,349
-55,201
-58,012
-61,985
-65,46
-67,589
-68,145
-67,14
-65,1
-62,507
-59,554
-56,636
-54,361
-53,051
-52,817
-53,628
-55,223
-57,397
-60,042
-62,982
-66,023
-69,01
-71,789
-74,269
-76,434
-78,262
-79,729
-80,829
-81,555
-81,92
-81,957
-81,704
-81,199
-80,484
-79,597
-78,585
-77,497
-76,384
-75,302
-74,289
-73,372
-72,567
-71,882
-71,322
-70,887
-70,573
-70,361
-70,238
-70,191
-70,208
-70,279
-70,392
-70,531
-70,68
-70,82
-70,936
-71,015
-71,046
-71,015
-70,913
-70,73
-70,459
-70,095
-69,634
-69,068
-68,392
-67,6
-66,689
-65,655
-64,498
-63,218
-61,816
-60,296
-58,664
-56,927
-55,093
-53,172
-51,173
-49,109
-46,991
-44,832
-42,646
-40,446
-38,248
-36,067
-33,917
-31,816
-29,778
-27,82
-25,956
-24,202
-22,573
-21,081
-19,741
-18,563
-17,561
-16,743
-16,119
-15,698
-15,485
-15,486
-15,705
-16,143
-16,803
-17,681
-18,777
-20,084
-21,598
-23,311
-25,215
-27,301
-29,557
-31,973
-34,535
-37,231
-40,045
-42,965
-45,973
-49,056
-52,197
-55,381
-58,591
-61,813
-65,031
-68,229
-71,395
-74,512
-77,568
-80,55
-83,445
-86,241
-88,929
-91,497
-93,936
-96,239
-98,399
-100,408
-102,262
-103,957
-105,49
-106,858
-108,062
-109,1
-109,973
-110,683
-111,234
-111,628
-111,87
-111,965
-111,918
-111,737
-111,426
-110,995
-110,449
-109,798
-109,047
-108,207
-107,284
-106,286
-105,222
-104,1
-102,928
-101,713
-100,464
-99,189
-97,894
-96,587
-95,275
-93,964
-92,661
-91,372
-90,102
-88,855
-87,636
-86,449
-85,298
-84,184
-83,11
-82,079
-81,09
-80,144
-79,241
-78,381
-77,563
-76,786
-76,047
-75,346
-74,68
-74,047
-73,445
-72,871
-72,324
-71,801
-71,299
-70,817
-70,351
-69,901
-69,463
-69,036
-68,618
-68,207
-67,802
-67,401
-67,005
-66,612
-66,222
-65,835
-65,451
-65,071
-64,694
-64,323
-63,958
-63,602
-63,255
-62,92
-62,599
-62,295
-62,01
-61,746
-61,505
-61,291
-61,103
-60,944
-60,815
-60,716
-60,647
-60,608
-60,597
-60,612
-60,653
-60,717
-60,799
-60,896
-61,004
-61,117
-61,231
-61,339
-61,434
-61,509
-61,558
-61,574
-61,55
-61,478
-61,352
-61,164
-60,906
-60,573
-60,156
-59,649
-59,044
-58,334
-57,513
-56,577
-55,52
-54,336
-53,024
-51,58
-50,006
-48,303
-46,474
-44,52
-42,445
-40,253
-37,95
-35,54
-33,026
-30,41
-27,697
-24,894
-22,011
-19,059
-16,049
-12,989
-9,888
-6,755
-3,6
-0,429
2,755
5,951
9,154
12,35
15,513
18,62
21,654
24,603
27,46
30,227
32,906
35,513
38,076
40,625
43,18
45,754
48,338
50,925
53,521
56,138
58,8
61,528
64,326
67,194
70,13
73,092
76,023
78,841
81,435
83,739
85,705
87,255
88,347
88,929
88,923
88,367
87,261
85,463
82,992
79,981
76,699
73,834
72,061
71,546
72,497
75,236
79,548
85,157
91,219
95,587
96,496
93,537
86,701
76,423
64,06
50,996
40,066
36,539
44,9
65,665
96,567
135,138
179,332
233,172
302,625
384,027
466,413
530,583
551,877
517,171
428,804
298,878
152,391
16,96
-91,569
-162,333
-196,446
-208,298
-207,833
-203,389
-197,715
-184,16
-159,956
-126,408
-88,145
-52,816
-24,275
-3,566
9,466
16,269
17,308
13,994
9,38
5,292
2,664
2,05
3,144
5,968
11,138
18,162
25,631
32,741
39,035
44,384
49,173
53,415
56,754
59,333
61,676
64,112
66,805
69,761
72,829
76,211
80,475
85,844
92,097
98,859
105,745
112,45
118,659
123,504
125,366
123,066
116,543
106,615
94,701
82,152
70,057
60,026
54,787
56,764
66,663
83,489
104,812
128,012
151,243
172,654
189,409
198,626
198,949
190,796
176,362
158,416
138,738
118,568
99,579
83,654
71,987
64,785
60,993
58,932
57,674
56,943
56,518
56,122
55,532
54,733
54,206
54,791
56,99
60,933
66,582
73,79
82,447
92,475
103,682
115,716
128,249
140,994
153,671
166,058
177,928
189,012
199,052
207,838
215,2
221,033
225,292
227,95
229,025
228,588
226,739
223,628
219,435
214,337
208,539
202,27
195,724
189,095
182,571
176,296
170,391
164,96
160,061
155,735
152,001
148,842
146,22
144,087
142,369
140,992
139,869
138,886
137,957
137,013
135,991
134,856
133,581
132,141
130,531
128,766
126,857
124,824
122,693
120,48
118,214
115,929
113,66
111,452
109,339
107,341
105,479
103,769
102,218
100,835
99,613
98,532
97,581
96,755
96,051
95,473
95,022
94,703
94,533
94,542
94,756
95,195
95,862
96,75
97,852
99,158
100,66
102,354
104,22
106,237
108,385
110,644
112,987
115,37
117,718
119,925
121,895
123,548
124,84
125,754
126,282
126,452
126,306
125,909
125,354
124,723
124,091
123,535
123,143
123,013
123,288
124,138
125,718
128,184
131,644
136,158
141,767
148,441
156,101
164,63
173,866
183,646
193,823
204,233
214,694
225,042
235,084
244,612
253,436
261,341
268,148
273,735
278,005
280,934
282,563
282,968
282,272
280,62
278,158
275,051
271,487
267,615
263,583
259,538
255,614
251,976
248,78
246,14
244,136
242,812
242,171
242,195
242,84
244,023
245,643
247,586
249,727
251,982
254,299
256,634
258,952
261,203
263,34
265,343
267,226
269,014
270,731
272,408
274,077
275,805
277,695
279,844
282,333
285,215
288,49
292,144
296,151
300,476
305,059
309,816
314,62
319,336
323,855
328,072
331,886
335,179
337,794
339,589
340,458
340,315
339,12
336,853
333,502
329,078
323,634
317,251
310,054
302,188
293,761
284,878
275,641
266,151
256,54
246,917
237,362
227,94
218,699
209,681
200,935
192,494
184,357
176,516
168,93
161,544
154,33
147,263
140,327
133,51
126,794
120,186
113,716
107,411
101,284
95,324
89,499
83,785
78,177
72,672
67,262
61,93
56,645
51,351
45,985
40,512
34,844
28,827
22,415
15,667
8,798
2,287
-3,429
-8,056
-11,209
-12,597
-12,379
-10,982
-9,276
-8,705
-10,406
-15,279
-24,353
-37,872
-54,994
-74,301
-93,422
-109,103
-118,591
-119,135
-107,533
-82,229
-43,394
7,862
68,574
134,255
200,466
261,797
311,453
344,356
356,957
346,424
312,604
257,531
184,009
97,045
3,943
-88,892
-175,412
-249,416
-307,314
-347,536
-369,523
-375,177
-368,403
-352,885
-332,863
-313,166
-296,81
-285,574
-280,538
-281,175
-286,107
-294,071
-303,274
-311,63
-318,035
-321,979
-323,35
-322,71
-320,705
-317,866
-314,922
-312,623
-311,343
-311,223
-312,236
-314,141
-316,741
-319,897
-323,4
-327,014
-330,561
-333,878
-336,81
-339,269
-341,146
-342,298
-342,628
-342,06
-340,553
-338,137
-334,863
-330,781
-325,968
-320,515
-314,53
-308,169
-301,575
-294,873
-288,204
-281,69
-275,465
-269,697
-264,517
-260,03
-256,308
-253,37
-251,211
-249,814
-249,125
-249,064
-249,528
-250,376
-251,488
-252,762
-254,085
-255,354
-256,458
-257,274
-257,709
-257,679
-257,097
-255,878
-253,953
-251,304
-247,986
-244,1
-239,734
-234,96
-229,81
-224,367
-218,855
-213,434
-208,054
-202,457
-196,304
-189,446
-182,194
-175,022
-167,969
-161
-154,432
-149,034
-146,063
-146,526
-150,043
-155,279
-161,55
-168,388
-174,674
-179,126
-179,623
-173,384
-161,932
-148,424
-132,232
-114,547
-92,632
-62,664
-32,819
-9,627
0,349
-9,918
-31,819
-57,142
-80,198
-93,37
-99,844
-102,615
-101,93
-100,812
-98,457
-94,28
-89,674
-84,667
-79,889
-76,293
-73,865
-72,478
-71,892
-71,448
-70,785
-69,871
-68,722
-67,429
-66,038
-64,53
-62,919
-61,295
-59,709
-58,16
-56,618
-55,009
-53,307
-51,526
-49,683
-47,791
-45,837
-43,8
-41,668
-39,432
-37,091
-34,648
-32,105
-29,476
-26,782
-24,043
-21,282
-18,516
-15,758
-13,014
-10,29
-7,591
-4,922
-2,293
0,287
2,81
5,266
7,648
9,949
12,168
14,303
16,356
18,328
20,221
22,035
23,774
25,44
27,036
28,564
30,028
31,431
32,781
34,083
35,342
36,563
37,752
38,914
40,053
41,176
42,285
43,386
44,482
45,579
46,68
47,789
48,906
50,034
51,173
52,323
53,483
54,653
55,83
57,015
58,205
59,399
60,599
61,803
63,011
64,219
65,425
66,627
67,82
69
70,161
71,296
72,401
73,476
74,52
75,534
76,521
77,482
78,423
79,349
80,261
81,164
82,057
82,939
83,813
84,685
85,562
86,46
87,387
88,349
89,354
90,404
91,491
92,608
93,731
94,836
95,91
96,945
97,944
98,924
99,902
100,898
101,937
103,028
104,181
105,415
106,736
108,159
109,71
111,419
113,334
115,521
118,026
120,879
124,097
127,657
131,525
135,656
139,988
144,466
149,038
153,628
158,17
162,61
166,885
170,94
174,708
178,071
180,937
183,233
184,893
185,901
186,25
185,926
184,943
183,332
181,147
178,486
175,461
172,143
168,601
164,897
161,106
157,366
153,802
150,511
147,592
145,129
143,231
142,055
141,737
142,364
143,969
146,512
149,929
154,19
159,259
165,078
171,536
178,462
185,705
193,159
200,726
208,259
215,511
222,152
227,857
232,348
235,457
237,033
236,846
234,816
231,021
225,723
219,525
212,999
206,431
200,246
194,988
190,721
187,354
184,387
180,398
174,405
166,036
154,492
139,254
120,938
100,602
80,455
64,458
55,619
55,999
68,96
97,424
142,161
203,305
277,248
355,727
434,479
511,154
583,785
655,202
721,106
770,759
793,378
773,902
705,793
594,707
454,245
310,393
190,063
110,668
78,124
81,555
99,984
116,949
124,56
124,443
125,773
133,772
147,73
165,192
181,667
194,723
204,959
212,919
219,157
224,521
229,005
231,532
231,539
228,79
223,421
216,644
209,392
201,845
194,507
188,367
184,066
182,013
182,014
182,914
183,951
184,907
185,492
185,459
184,604
182,71
179,927
176,83
173,769
170,873
168,199
165,648
163,189
160,873
158,661
156,455
154,199
151,85
149,394
146,865
144,259
141,551
138,717
135,72
132,536
129,157
125,571
121,783
117,802
113,612
109,187
104,478
99,411
93,943
88,063
81,772
75,101
68,094
60,803
53,312
45,723
38,12
30,579
23,159
15,893
8,844
2,095
-4,255
-10,075
-15,273
-19,797
-23,613
-26,712
-29,118
-30,871
-32,055
-32,799
-33,206
-33,362
-33,337
-33,171
-32,931
-32,7
-32,572
-32,657
-33,045
-33,801
-34,984
-36,644
-38,801
-41,462
-44,596
-48,133
-52,03
-56,264
-60,823
-65,718
-70,949
-76,502
-82,372
-88,549
-95,027
-101,804
-108,873
-116,225
-123,862
-131,796
-140,052
-148,67
-157,673
-167,071
-176,864
-187,044
-197,598
-208,513
-219,767
-231,329
-243,172
-255,269
-267,594
-280,124
-292,829
-305,677
-318,629
-331,647
-344,693
-357,729
-370,722
-383,636
-396,439
-409,098
-421,586
-433,876
-445,941
-457,754
-469,286
-480,508
-491,395
-501,922
-512,064
-521,799
-531,11
-539,978
-548,392
-556,341
-563,818
-570,816
-577,334
-583,369
-588,92
-593,989
-598,577
-602,688
-606,325
-609,495
-612,205
-614,466
-616,291
-617,696
-618,697
-619,315
-619,566
-619,472
-619,049
-618,318
-617,298
-616,005
-614,46
-612,684
-610,705
-608,553
-606,255
-603,834
-601,305
-598,678
-595,959
-593,145
-590,23
-587,206
-584,073
-580,837
-577,519
-574,149
-570,758
-567,381
-564,036
-560,733
-557,481
-554,291
-551,179
-548,166
-545,285
-542,585
-540,122
-537,96
-536,14
-534,685
-533,58
-532,791
-532,269
-531,954
-531,801
-531,789
-531,901
-532,133
-532,489
-532,96
-533,52
-534,127
-534,717
-535,216
-535,582
-535,791
-535,858
-535,825
-535,745
-535,691
-535,721
-535,856
-536,095
-536,418
-536,788
-537,186
-537,624
-538,117
-538,71
-539,459
-540,39
-541,527
-542,873
-544,413
-546,137
-548,031
-550,105
-552,421
-555,084
-558,21
-561,926
-566,332
-571,495
-577,483
-584,345
-592,122
-600,863
-610,615
-621,433
-633,373
-646,475
-660,739
-676,111
-692,47
-709,63
-727,393
-745,562
-763,952
-782,398
-800,723
-818,746
-836,293
-853,185
-869,226
-884,188
-897,835
-909,931
-920,3
-928,837
-935,491
-940,276
-943,218
-944,344
-943,677
-941,239
-937,06
-931,173
-923,622
-914,452
-903,746
-891,649
-878,335
-864,008
-848,841
-832,958
-816,474
-799,479
-782,051
-764,277
-746,254
-728,081
-709,882
-691,795
-673,938
-656,423
-639,331
-622,696
-606,53
-590,83
-575,624
-560,913
-546,66
-532,81
-519,291
-506,08
-493,2
-480,613
-468,17
-455,777
-443,442
-431,387
-420,084
-409,774
-400,405
-391,837
-383,912
-376,534
-369,529
-362,135
-352,925
-340,789
-325,33
-306,857
-286,122
-263,647
-240,179
-217,381
-197,979
-184,924
-180,079
-183,838
-195,861
-215,677
-241,854
-271,776
-301,236
-324,54
-336,995
-335,379
-316,67
-278,754
-221,419
-145,891
-55,898
41,904
140,947
234,84
315,933
377,492
414,624
423,567
403,673
357,839
289,953
205,278
111,51
16,339
-73,131
-149,91
-209,688
-251,044
-273,722
-279,227
-271,165
-253,619
-231,103
-208,716
-189,807
-175,972
-168,115
-165,938
-168,206
-173,542
-180,064
-185,439
-188,334
-188,293
-185,182
-179,501
-171,924
-162,977
-153,425
-144,16
-135,643
-128,065
-121,481
-115,704
-110,588
-106,076
-102,017
-98,246
-94,654
-91,116
-87,529
-83,814
-79,84
-75,507
-70,766
-65,581
-59,941
-53,849
-47,291
-40,26
-32,772
-24,827
-16,398
-7,47
1,964
11,86
22,111
32,581
43,139
53,686
64,152
74,477
84,588
94,422
103,917
113,013
121,667
129,798
137,274
143,966
149,762
154,616
158,575
161,728
164,162
165,96
167,206
167,996
168,456
168,699
168,81
168,864
168,926
169,101
169,551
170,443
171,933
174,116
177,008
180,583
184,813
189,647
195,016
200,822
206,926
213,219
219,634
226,121
232,649
239,153
245,531
251,679
257,494
262,906
267,888
272,429
276,521
280,183
283,457
286,411
289,148
291,74
294,226
296,63
298,959
301,235
303,491
305,762
308,074
310,453
312,914
315,474
318,152
320,954
323,869
326,875
329,935
333,026
336,14
339,276
342,442
345,645
348,889
352,186
355,551
358,997
362,532
366,159
369,88
373,699
377,624
381,666
385,839
390,15
394,608
399,218
403,984
408,908
413,991
419,23
424,618
430,15
435,822
441,631
447,571
453,64
459,832
466,142
472,566
479,098
485,732
492,459
499,273
506,165
513,127
520,151
527,229
534,354
541,52
548,721
555,951
563,205
570,478
577,767
585,067
592,373
599,683
606,993
614,3
621,601
628,895
636,179
643,453
650,717
657,969
665,209
672,438
679,655
686,859
694,049
701,225
708,386
715,53
722,658
729,769
736,863
743,94
750,999
758,042
765,066
772,072
779,057
786,02
792,959
799,87
806,75
813,596
820,405
827,174
833,897
840,57
847,191
853,756
860,262
866,706
873,082
879,388
885,622
891,779
897,857
903,851
909,754
915,563
921,276
926,89
932,405
937,818
943,125
948,324
953,414
958,392
963,253
967,988
972,579
977,02
981,317
985,477
989,516
993,448
997,276
1001,019
1004,696
1008,314
1011,873
1015,359
1018,742
1022,01
1025,165
1028,209
1031,158
1034,007
1036,723
1039,27
1041,596
1043,633
1045,323
1046,587
1047,33
1047,506
1047,106
1046,158
1044,737
1042,885
1040,628
1038,006
1035,049
1031,815
1028,391
1024,866
1021,345
1017,978
1014,921
1012,345
1010,441
1009,316
1009,003
1009,471
1010,604
1012,291
1014,429
1016,875
1019,46
1021,994
1024,258
1026,038
1027,121
1027,232
1026,066
1023,321
1018,677
1011,907
1002,888
991,57
978,018
962,335
944,658
925,19
904,201
882,007
858,953
835,389
811,636
788,069
765,112
743,19
722,745
704,147
687,662
673,489
661,74
652,456
645,625
641,15
638,834
638,407
639,556
641,945
645,275
649,204
653,33
657,224
660,42
662,489
663,073
661,847
658,524
652,88
644,727
633,933
620,457
604,322
585,598
564,413
540,846
514,938
486,893
457,091
426,112
394,758
363,812
333,917
305,81
280,34
258,008
238,868
222,413
207,28
192,018
175,566
156,838
134,835
109,321
80,964
51,565
24,599
4,042
-6,506
-3,372
16,739
55,829
114,245
190,369
280,02
377,364
475,796
567,696
645,085
700,805
729,324
727,034
692,891
628,404
537,297
425,592
301,073
172,138
46,752
-67,737
-165,208
-241,521
-294,922
-326,08
-337,723
-333,862
-318,918
-297,678
-274,956
-254,756
-239,5
-230,008
-225,856
-225,838
-228,516
-232,205
-234,992
-235,181
-231,921
-225,247
-215,759
-204,35
-191,885
-179,184
-167,128
-156,588
-148,119
-141,905
-137,911
-135,934
-135,765
-137,263
-140,23
-144,393
-149,5
-155,288
-161,487
-167,9
-174,332
-180,547
-186,364
-191,613
-196,126
-199,827
-202,677
-204,644
-205,74
-205,992
-205,431
-204,143
-202,238
-199,833
-197,069
-194,075
-190,972
-187,909
-185,01
-182,371
-180,077
-178,178
-176,696
-175,656
-175,059
-174,883
-175,094
-175,653
-176,518
-177,666
-179,073
-180,708
-182,537
-184,518
-186,62
-188,831
-191,152
-193,582
-196,117
-198,765
-201,543
-204,506
-207,736
-211,284
-215,17
-219,399
-223,951
-228,813
-233,983
-239,428
-245,092
-250,912
-256,809
-262,725
-268,628
-274,454
-280,125
-285,526
-290,49
-294,904
-298,703
-301,833
-304,264
-305,965
-306,886
-307,036
-306,482
-305,293
-303,558
-301,35
-298,712
-295,734
-292,535
-289,273
-286,157
-283,346
-280,948
-279,072
-277,813
-277,273
-277,58
-278,797
-280,919
-283,937
-287,821
-292,546
-298,112
-304,463
-311,502
-319,109
-327,123
-335,421
-343,925
-352,545
-361,196
-369,782
-378,185
-386,329
-394,194
-401,755
-409,002
-415,926
-422,507
-428,765
-434,758
-440,554
-446,238
-451,871
-457,481
-463,104
-468,771
-474,522
-480,408
-486,456
-492,663
-499,032
-505,559
-512,237
-519,063
-526,008
-533,012
-540,015
-546,952
-553,774
-560,463
-567,006
-573,39
-579,607
-585,65
-591,526
-597,271
-602,927
-608,523
-614,097
-619,674
-625,294
-631,033
-636,964
-643,15
-649,65
-656,472
-663,606
-671,041
-678,755
-686,708
-694,832
-703,006
-711,077
-718,921
-726,426
-733,493
-740,029
-745,899
-750,965
-755,107
-758,221
-760,256
-761,19
-760,995
-759,648
-757,163
-753,605
-749,117
-743,906
-738,14
-731,95
-725,453
-718,75
-711,98
-705,292
-698,808
-692,627
-686,813
-681,419
-676,513
-672,181
-668,472
-665,38
-662,822
-660,649
-658,753
-657,064
-655,533
-654,122
-652,771
-651,416
-650,019
-648,574
-647,082
-645,534
-643,899
-642,12
-640,156
-638,008
-635,722
-633,381
-631,045
-628,745
-626,497
-624,314
-622,216
-620,215
-618,302
-616,441
-614,596
-612,744
-610,878
-609,006
-607,13
-605,232
-603,276
-601,213
-599,005
-596,619
-594,026
-591,195
-588,092
-584,692
-580,98
-576,959
-572,625
-567,973
-562,992
-557,668
-551,991
-545,957
-539,564
-532,812
-525,701
-518,238
-510,429
-502,288
-493,828
-485,067
-476,022
-466,708
-457,145
-447,353
-437,345
-427,141
-416,761
-406,231
-395,583
-384,848
-374,047
-363,209
-352,363
-341,533
-330,741
-319,995
-309,275
-298,569
-287,867
-277,167
-266,482
-255,817
-245,169
-234,536
-223,913
-213,306
-202,741
-192,228
-181,766
-171,375
-161,091
-150,996
-141,242
-131,962
-123,265
-115,244
-107,929
-101,367
-95,634
-90,786
-86,891
-83,989
-82,051
-81,103
-81,252
-82,459
-84,529
-87,001
-89,018
-89,775
-88,671
-85,169
-78,955
-70,027
-58,756
-46,241
-34,391
-25,179
-20,19
-20,282
-25,182
-33,956
-44,979
-55,097
-59,81
-54,033
-32,967
4,621
55,97
118,423
190,34
273,752
372,264
482,064
589,113
671,031
707,246
686,387
612,286
503,094
373,773
240,961
120,26
17,119
-56,92
-98,384
-117,087
-119,09
-115,025
-110,899
-101,731
-86,325
-65,422
-41,657
-21,369
-7,563
-0,063
2,151
1,106
-1,674
-4,925
-7,105
-7,277
-5,182
-1,116
4,263
10,379
16,778
22,922
28,238
32,393
35,312
37,144
38,182
38,658
38,741
38,622
38,507
38,576
38,988
39,846
41,182
43,026
45,4
48,308
51,755
55,719
60,153
65,001
70,207
75,717
81,486
87,463
93,586
99,784
105,978
112,099
118,098
123,941
129,603
135,063
140,308
145,343
150,197
154,911
159,518
164,041
168,482
172,836
177,106
181,292
185,392
189,403
193,303
197,071
200,7
204,183
207,502
210,62
213,47
215,96
218,011
219,565
220,586
221,062
220,988
220,388
219,322
217,866
216,125
214,197
212,151
210,056
208,003
206,095
204,46
203,262
202,633
202,696
203,571
205,337
208,048
211,706
216,238
221,529
227,433
233,804
240,517
247,439
254,401
261,242
267,803
273,902
279,391
284,112
287,881
290,559
292,045
292,292
291,332
289,235
286,093
282,016
277,119
271,532
265,417
258,909
252,114
245,146
238,101
231,095
224,283
217,779
211,659
205,965
200,699
195,841
191,371
187,235
183,359
179,664
176,064
172,519
169,021
165,559
162,121
158,671
155,153
151,537
147,827
144,039
140,199
136,339
132,487
128,709
125,094
121,714
118,614
115,778
113,163
110,727
108,443
106,31
104,333
102,506
100,805
99,202
97,668
96,167
94,66
93,074
91,312
89,299
87,006
84,472
81,778
79,011
76,241
73,505
70,839
68,271
65,831
63,548
61,449
59,564
57,93
56,616
55,713
55,304
55,439
56,098
57,213
58,688
60,442
62,421
64,576
66,865
69,251
71,703
74,199
76,723
79,253
81,738
84,11
86,29
88,21
89,85
91,224
92,376
93,34
94,135
94,777
95,278
95,652
95,905
96,027
96,001
95,808
95,448
94,933
94,287
93,532
92,676
91,709
90,611
89,37
87,98
86,439
84,746
82,895
80,889
78,74
76,47
74,101
71,647
69,115
66,514
63,851
61,144
58,418
55,697
52,992
50,311
47,659
45,032
42,432
39,857
37,291
34,724
32,156
29,596
27,071
24,609
22,223
19,918
17,686
15,52
13,433
11,44
9,557
7,817
6,244
4,869
3,749
2,913
2,363
2,078
2
2,051
2,182
2,349
2,518
2,664
2,741
2,699
2,501
2,095
1,438
0,489
-0,822
-2,536
-4,65
-7,14
-9,934
-12,923
-16,034
-19,194
-22,334
-25,409
-28,357
-31,114
-33,648
-35,939
-38,002
-39,865
-41,544
-43,055
-44,423
-45,695
-46,968
-48,369
-50,024
-52,047
-54,514
-57,523
-61,242
-65,712
-70,811
-76,216
-81,292
-85,397
-88,049
-88,711
-86,982
-82,916
-76,954
-70,15
-64,266
-60,937
-61,475
-66,94
-77,447
-92,033
-108,749
-124,376
-134,803
-135,569
-122,597
-93,036
-45,389
18,012
92,972
176,712
263,058
348,449
429,879
494,524
535,148
545,83
517,429
457,141
370,58
259,117
139,096
22,748
-78,233
-144,164
-173,785
-177,6
-164,1
-147,837
-134,768
-119,234
-100,276
-78,582
-55,981
-38,162
-27,583
-23,154
-23,38
-26,395
-30,302
-33,544
-35,198
-34,663
-31,894
-27,593
-22,436
-16,9
-11,605
-7,155
-3,857
-1,89
-1,222
-1,576
-2,737
-4,548
-6,819
-9,373
-12,074
-14,79
-17,405
-19,866
-22,124
-24,127
-25,85
-27,278
-28,393
-29,208
-29,749
-30,035
-30,091
-29,941
-29,6
-29,089
-28,44
-27,685
-26,866
-26,012
-25,137
-24,249
-23,352
-22,442
-21,516
-20,558
-19,545
-18,458
-17,282
-16,007
-14,626
-13,129
-11,504
-9,739
-7,824
-5,751
-3,516
-1,115
1,455
4,192
7,093
10,151
13,357
16,699
20,17
23,759
27,456
31,249
35,125
39,069
43,07
47,111
51,177
55,25
59,314
63,351
67,343
71,275
75,13
78,89
82,54
86,064
89,448
92,676
95,735
98,61
101,289
103,758
106,008
108,026
109,805
111,335
112,611
113,626
114,378
114,863
115,081
115,031
114,716
114,139
113,304
112,216
110,883
109,311
107,51
105,49
103,262
100,837
98,227
95,443
92,5
89,409
86,183
82,837
79,382
75,834
72,205
68,51
64,763
60,977
57,167
53,346
49,528
45,724
41,948
38,212
34,525
30,9
27,345
23,87
20,483
17,192
14,002
10,921
7,953
5,101
2,371
-0,235
-2,715
-5,067
-7,289
-9,382
-11,343
-13,173
-14,873
-16,443
-17,885
-19,2
-20,391
-21,461
-22,413
-23,251
-23,98
-24,604
-25,129
-25,56
-25,902
-26,161
-26,344
-26,455
-26,5
-26,485
-26,415
-26,295
-26,129
-25,923
-25,68
-25,404
-25,098
-24,767
-24,413
-24,039
-23,648
-23,243
-22,825
-22,399
-21,965
-21,526
-21,083
-20,638
-20,191
-19,745
-19,297
-18,85
-18,401
-17,951
-17,498
-17,041
-16,578
-16,107
-15,629
-15,14
-14,641
-14,13
-13,607
-13,071
-12,523
-11,962
-11,39
-10,806
-10,212
-9,609
-8,998
-8,381
-7,761
-7,137
-6,514
-5,892
-5,274
-4,662
-4,058
-3,464
-2,882
-2,315
-1,765
-1,236
-0,729
-0,25
0,2
0,617
0,996
1,335
1,632
1,883
2,087
2,241
2,346
2,4
2,403
2,354
2,249
2,087
1,866
1,585
1,241
0,834
0,363
-0,169
-0,758
-1,399
-2,087
-2,819
-3,595
-4,412
-5,267
-6,158
-7,082
-8,037
-9,02
-10,022
-11,031
-12,038
-13,037
-14,032
-15,035
-16,057
-17,106
-18,187
-19,301
-20,445
-21,612
-22,782
-23,921
-24,996
-25,98
-26,855
-27,613
-28,237
-28,709
-28,998
-29,063
-28,875
-28,409
-27,65
-26,612
-25,326
-23,841
-22,233
-20,593
-19,012
-17,605
-16,469
-15,701
-15,421
-15,706
-16,692
-18,594
-21,484
-25,314
-29,901
-34,77
-39,406
-43,432
-46,294
-47,375
-46,572
-44,11
-40,739
-38,024
-37,414
-40,027
-47,044
-59,144
-75,755
-95,434
-115,62
-132,461
-141,86
-139,664
-122,198
-86,88
-34,78
29,367
102,683
182,1
265,748
355,794
443,841
513,831
553,685
548,52
496,078
412,851
309,939
200,443
100,103
9,454
-65,715
-116,418
-148,559
-163,896
-165,944
-164,968
-160,257
-151,259
-141,09
-129,783
-120,72
-117,074
-118,367
-123,61
-131,182
-139,248
-146,415
-151,771
-154,867
-155,544
-154,187
-151,519
-148,129
-144,674
-141,862
-140,05
-139,41
-140,01
-141,681
-144,236
-147,545
-151,407
-155,614
-160,01
-164,434
-168,756
-172,88
-176,701
-180,131
-183,108
-185,583
-187,538
-188,98
-189,914
-190,37
-190,381
-189,979
-189,208
-188,113
-186,741
-185,151
-183,403
-181,559
-179,673
-177,781
-175,914
-174,092
-172,327
-170,626
-168,987
-167,401
-165,862
-164,368
-162,916
-161,503
-160,127
-158,78
-157,452
-156,134
-154,818
-153,499
-152,172
-150,83
-149,471
-148,093
-146,694
-145,276
-143,836
-142,372
-140,881
-139,358
-137,8
-136,205
-134,57
-132,892
-131,171
-129,407
-127,601
-125,757
-123,876
-121,963
-120,021
-118,056
-116,073
-114,078
-112,079
-110,083
-108,098
-106,132
-104,196
-102,299
-100,45
-98,657
-96,932
-95,282
-93,715
-92,241
-90,865
-89,596
-88,438
-87,398
-86,48
-85,69
-85,029
-84,5
-84,106
-83,846
-83,719
-83,725
-83,861
-84,122
-84,504
-85,003
-85,611
-86,323
-87,131
-88,026
-89,001
-90,046
-91,152
-92,309
-93,507
-94,737
-95,988
-97,251
-98,518
-99,779
-101,027
-102,254
-103,453
-104,619
-105,745
-106,827
-107,862
-108,845
-109,775
-110,649
-111,468
-112,229
-112,935
-113,586
-114,184
-114,731
-115,229
-115,682
-116,092
-116,463
-116,799
-117,103
-117,379
-117,631
-117,863
-118,079
-118,281
-118,474
-118,661
-118,845
-119,027
-119,211
-119,397
-119,588
-119,784
-119,986
-120,194
-120,408
-120,627
-120,85
-121,077
-121,304
-121,529
-121,751
-121,965
-122,169
-122,358
-122,53
-122,681
-122,807
-122,905
-122,972
-123,004
-122,999
-122,955
-122,868
-122,739
-122,564
-122,344
-122,077
-121,763
-121,402
-120,993
-120,537
-120,033
-119,482
-118,884
-118,239
-117,546
-116,805
-116,017
-115,179
-114,293
-113,357
-112,372
-111,338
-110,254
-109,122
-107,942
-106,715
-105,441
-104,122
-102,758
-101,35
-99,897
-98,4
-96,858
-95,271
-93,637
-91,956
-90,226
-88,446
-86,613
-84,725
-82,783
-80,783
-78,724
-76,606
-74,428
-72,191
-69,896
-67,546
-65,143
-62,689
-60,191
-57,652
-55,078
-52,474
-49,843
-47,192
-44,524
-41,845
-39,158
-36,469
-33,781
-31,102
-28,439
-25,8
-23,192
-20,624
-18,104
-15,64
-13,241
-10,913
-8,659
-6,485
-4,395
-2,397
-0,498
1,3
2,993
4,582
6,067
7,449
8,731
9,923
11,036
12,08
13,058
13,968
14,798
15,543
16,203
16,778
17,273
17,689
18,029
18,312
18,569
18,831
19,127
19,479
19,902
20,43
21,109
21,993
23,148
24,625
26,452
28,65
31,241
34,225
37,602
41,359
45,418
49,687
54,065
58,428
62,658
66,651
70,226
73,118
75,177
76,403
76,974
77,32
77,818
78,686
80,25
82,963
86,987
92,11
97,596
101,952
103,823
102,413
96,972
86,944
72,538
54,758
35,755
19,25
9,09
8,504
20,666
48,257
92,777
154,418
231,496
319,762
413,921
508,386
596,431
671,314
727,227
758,926
765,006
746,896
704,639
641,423
558,545
457,873
352,18
252,051
169,562
116,602
87,912
77,716
80,245
85,511
94,349
107,238
120,476
133,715
143,689
147,469
145,921
140,066
131,455
122,394
114,841
109,841
107,917
109,2
113,15
119,088
126,442
134,347
141,898
148,642
154,334
158,897
162,51
165,279
167,249
168,581
169,436
169,926
170,162
170,193
170,046
169,811
169,604
169,548
169,741
170,222
171,004
172,091
173,481
175,159
177,1
179,253
181,572
184,016
186,548
189,134
191,733
194,292
196,756
199,068
201,189
203,096
204,778
206,229
207,451
208,453
209,248
209,86
210,308
210,608
210,774
210,82
210,762
210,621
210,416
210,168
209,894
209,611
209,334
209,077
208,852
208,669
208,536
208,459
208,445
208,501
208,635
208,854
209,161
209,561
210,057
210,651
211,341
212,127
213,003
213,965
215,005
216,116
217,289
218,514
219,78
221,076
222,389
223,706
225,012
226,293
227,535
228,722
229,839
230,872
231,806
232,627
233,321
233,877
234,28
234,522
234,589
234,474
234,166
233,658
232,943
232,015
230,871
229,507
227,922
226,115
224,089
221,844
219,385
216,716
213,843
210,773
207,513
204,071
200,457
196,681
192,754
188,687
184,492
180,181
175,766
171,261
166,679
162,031
157,331
152,592
147,827
143,049
138,27
133,502
128,759
124,051
119,39
114,787
110,252
105,794
101,422
97,144
92,968
88,901
84,949
81,118
77,413
73,839
70,398
67,095
63,932
60,911
58,033
55,299
52,71
50,265
47,963
45,805
43,788
41,911
40,171
38,565
37,09
35,742
34,517
33,41
32,415
31,528
30,744
30,055
29,458
28,945
28,512
28,152
27,858
27,625
27,447
27,316
27,227
27,174
27,15
27,149
27,166
27,195
27,231
27,267
27,298
27,32
27,327
27,313
27,275
27,207
27,107
26,968
26,79
26,568
26,301
25,986
25,622
25,207
24,739
24,218
23,642
23,012
22,327
21,586
20,791
19,941
19,037
18,081
17,073
16,016
14,911
13,76
12,564
11,328
10,051
8,738
7,392
6,015
4,611
3,183
1,736
0,272
-1,204
-2,689
-4,178
-5,668
-7,156
-8,639
-10,111
-11,569
-13,01
-14,429
-15,823
-17,187
-18,518
-19,811
-21,063
-22,271
-23,43
-24,539
-25,593
-26,591
-27,53
-28,412
-29,235
-30
-30,709
-31,362
-31,96
-32,506
-32,998
-33,437
-33,82
-34,148
-34,423
-34,648
-34,824
-34,956
-35,047
-35,1
-35,119
-35,108
-35,063
-34,984
-34,872
-34,732
-34,58
-34,428
-34,289
-34,173
-34,09
-34,046
-34,037
-34,05
-34,06
-34,038
-33,963
-33,814
-33,582
-33,256
-32,814
-32,228
-31,469
-30,508
-29,327
-27,914
-26,249
-24,34
-22,243
-20,034
-17,827
-15,733
-13,813
-12,151
-10,846
-9,99
-9,728
-10,192
-11,444
-13,612
-16,852
-21,162
-26,478
-32,52
-38,679
-44,412
-49,26
-52,646
-54,196
-53,917
-52,013
-49,34
-47,296
-46,961
-49,306
-55,195
-64,616
-76,758
-90,188
-102,142
-109,103
-107,936
-95,394
-68,631
-26,593
30,417
100,858
180,911
265,306
348,436
423,642
484,157
525,176
543,156
535,659
503,11
448,156
374,703
288,801
197,713
107,573
24,288
-46,242
-100,605
-137,489
-156,846
-160,884
-153,249
-137,19
-116,583
-96,028
-78,444
-65,471
-58,041
-55,616
-57,005
-61,271
-66,871
-71,777
-74,924
-75,85
-74,446
-71,307
-67,04
-62,054
-57,013
-52,678
-49,434
-47,458
-46,74
-47,009
-48,066
-49,775
-51,931
-54,329
-56,797
-59,177
-61,349
-63,257
-64,846
-66,064
-66,879
-67,271
-67,239
-66,804
-66,004
-64,884
-63,483
-61,848
-60,021
-58,046
-55,975
-53,866
-51,775
-49,747
-47,813
-45,994
-44,305
-42,758
-41,356
-40,094
-38,957
-37,931
-37,006
-36,173
-35,428
-34,76
-34,158
-33,608
-33,098
-32,618
-32,159
-31,713
-31,273
-30,83
-30,38
-29,919
-29,447
-28,962
-28,458
-27,933
-27,383
-26,805
-26,197
-25,56
-24,891
-24,192
-23,464
-22,712
-21,939
-21,152
-20,354
-19,554
-18,757
-17,971
-17,203
-16,462
-15,755
-15,091
-14,479
-13,927
-13,444
-13,039
-12,721
-12,497
-12,377
-12,367
-12,475
-12,708
-13,072
-13,573
-14,214
-15,001
-15,937
-17,022
-18,26
-19,649
-21,189
-22,877
-24,711
-26,685
-28,792
-31,026
-33,379
-35,841
-38,404
-41,055
-43,785
-46,582
-49,434
-52,33
-55,257
-58,203
-61,155
-64,102
-67,03
-69,928
-72,785
-75,588
-78,326
-80,989
-83,565
-86,046
-88,422
-90,684
-92,824
-94,834
-96,708
-98,44
-100,026
-101,463
-102,748
-103,879
-104,858
-105,686
-106,364
-106,897
-107,287
-107,541
-107,664
-107,662
-107,543
-107,313
-106,98
-106,552
-106,038
-105,445
-104,784
-104,061
-103,287
-102,469
-101,615
-100,736
-99,84
-98,935
-98,031
-97,135
-96,258
-95,406
-94,588
-93,811
-93,082
-92,407
-91,791
-91,238
-90,753
-90,338
-89,995
-89,726
-89,531
-89,411
-89,366
-89,394
-89,494
-89,665
-89,903
-90,208
-90,578
-91,009
-91,501
-92,051
-92,659
-93,321
-94,037
-94,803
-95,617
-96,476
-97,377
-98,316
-99,29
-100,293
-101,324
-102,378
-103,453
-104,546
-105,655
-106,778
-107,911
-109,055
-110,207
-111,366
-112,532
-113,702
-114,879
-116,061
-117,249
-118,443
-119,644
-120,851
-122,063
-123,278
-124,494
-125,708
-126,913
-128,106
-129,284
-130,443
-131,58
-132,693
-133,78
-134,841
-135,878
-136,891
-137,88
-138,843
-139,776
-140,675
-141,539
-142,363
-143,143
-143,872
-144,548
-145,169
-145,74
-146,262
-146,735
-147,154
-147,509
-147,798
-148,022
-148,185
-148,291
-148,346
-148,364
-148,369
-148,398
-148,488
-148,662
-148,93
-149,288
-149,732
-150,255
-150,852
-151,518
-152,234
-152,981
-153,746
-154,52
-155,293
-156,041
-156,709
-157,209
-157,452
-157,365
-156,909
-156,069
-154,837
-153,226
-151,259
-148,97
-146,422
-143,672
-140,757
-137,714
-134,573
-131,38
-128,236
-125,308
-122,784
-120,851
-119,664
-119,321
-119,885
-121,411
-123,936
-127,491
-132,077
-137,695
-144,328
-151,981
-160,725
-170,501
-181,066
-191,961
-202,468
-211,832
-219,479
-224,999
-228,034
-228,638
-227,287
-224,724
-222,315
-221,576
-223,56
-228,738
-237
-247,149
-257,038
-264,472
-266,441
-258,889
-238,532
-203,402
-152,283
-88,377
-16,622
61,473
140,898
218,309
291,669
348,591
381,868
387,485
357,568
298,225
214,079
105,458
-12,142
-125,137
-220,264
-278,114
-298,73
-294,29
-274,987
-256,907
-245,951
-235,939
-225,763
-214,089
-201,199
-192,691
-190,421
-193,011
-199,127
-206,203
-211,795
-215,194
-216,159
-214,414
-210,416
-204,89
-198,387
-191,674
-185,591
-180,484
-176,491
-173,708
-171,952
-171,061
-170,954
-171,443
-172,338
-173,531
-174,894
-176,335
-177,791
-179,144
-180,289
-181,162
-181,701
-181,888
-181,727
-181,211
-180,355
-179,188
-177,734
-176,027
-174,097
-171,962
-169,66
-167,229
-164,711
-162,16
-159,611
-157,087
-154,607
-152,178
-149,797
-147,461
-145,16
-142,871
-140,581
-138,278
-135,951
-133,592
-131,192
-128,735
-126,209
-123,6
-120,896
-118,09
-115,171
-112,132
-108,968
-105,676
-102,254
-98,703
-95,023
-91,214
-87,274
-83,206
-79,009
-74,687
-70,243
-65,68
-61,003
-56,221
-51,339
-46,369
-41,318
-36,197
-31,019
-25,793
-20,534
-15,255
-9,968
-4,688
0,57
5,792
10,962
16,065
21,087
26,012
30,827
35,516
40,066
44,465
48,701
52,762
56,638
60,32
63,799
67,07
70,125
72,961
75,575
77,964
80,127
82,066
83,782
85,279
86,561
87,634
88,504
89,179
89,667
89,979
90,123
90,111
89,955
89,666
89,256
88,74
88,129
87,437
86,678
85,865
85,012
84,131
83,235
82,338
81,451
80,585
79,752
78,963
78,226
77,552
76,948
76,421
75,979
75,627
75,371
75,213
75,159
75,21
75,368
75,635
76,011
76,497
77,091
77,794
78,604
79,519
80,536
81,654
82,87
84,179
85,58
87,067
88,637
90,285
92,008
93,801
95,659
97,578
99,553
101,578
103,649
105,762
107,911
110,093
112,301
114,532
116,781
119,044
121,318
123,598
125,88
128,159
130,433
132,697
134,947
137,177
139,385
141,565
143,712
145,823
147,893
149,918
151,892
153,813
155,675
157,474
159,207
160,87
162,459
163,971
165,403
166,752
168,016
169,195
170,285
171,286
172,197
173,019
173,75
174,392
174,944
175,407
175,782
176,072
176,279
176,405
176,453
176,428
176,334
176,176
175,96
175,689
175,371
175,01
174,614
174,187
173,738
173,273
172,798
172,318
171,842
171,374
170,92
170,484
170,07
169,682
169,323
168,993
168,695
168,426
168,188
167,978
167,794
167,632
167,49
167,364
167,25
167,146
167,046
166,947
166,843
166,727
166,593
166,432
166,234
165,992
165,696
165,338
164,915
164,424
163,858
163,211
162,466
161,612
160,641
159,543
158,309
156,936
155,426
153,793
152,066
150,272
148,438
146,581
144,709
142,83
140,962
139,127
137,359
135,683
134,112
132,661
131,35
130,187
129,154
128,184
127,174
126,019
124,65
123,037
121,148
118,934
116,332
113,246
109,586
105,32
100,374
94,625
88,071
80,813
73,17
65,782
59,267
54,119
50,88
49,89
51,08
54,112
58,026
61,286
62,622
60,904
55,1
45,124
31,828
16,74
2,731
-6,544
-7,816
2,34
27,019
67,428
123,234
192,702
271,879
355,525
437,65
511,253
569,56
607,162
622,13
614,124
582,037
528,295
453,079
358,001
256,026
157,206
73,26
16,881
-16,427
-31,788
-34,026
-32,752
-27,155
-16,257
-3,278
11,027
22,97
29,275
30,225
26,654
20,146
12,693
5,953
1,115
-1,178
-0,694
2,253
6,97
12,801
18,995
24,723
29,518
33,167
35,567
36,844
37,151
36,573
35,283
33,478
31,275
28,779
26,078
23,229
20,347
17,582
15,039
12,799
10,907
9,369
8,201
7,41
6,979
6,878
7,073
7,525
8,21
9,106
10,176
11,378
12,658
13,96
15,246
16,488
17,671
18,788
19,837
20,819
21,747
22,639
23,505
24,357
25,199
26,034
26,87
27,715
28,58
29,471
30,395
31,357
32,359
33,404
34,49
35,616
36,778
37,97
39,189
40,43
41,691
42,969
44,261
45,563
46,871
48,181
49,49
50,791
52,079
53,346
54,587
55,794
56,96
58,078
59,139
60,137
61,063
61,91
62,671
63,337
63,901
64,356
64,696
64,913
65,002
64,958
64,774
64,447
63,974
63,351
62,576
61,646
60,562
59,323
57,928
56,379
54,676
52,821
50,818
48,668
46,375
43,944
41,381
38,689
35,877
32,949
29,914
26,778
23,55
20,238
16,851
13,397
9,886
6,326
2,727
-0,901
-4,55
-8,21
-11,872
-15,527
-19,167
-22,784
-26,368
-29,914
-33,413
-36,858
-40,243
-43,561
-46,805
-49,971
-53,053
-56,044
-58,942
-61,739
-64,434
-67,022
-69,499
-71,864
-74,114
-76,246
-78,259
-80,152
-81,925
-83,577
-85,109
-86,52
-87,811
-88,984
-90,04
-90,98
-91,806
-92,52
-93,125
-93,621
-94,013
-94,301
-94,489
-94,579
-94,574
-94,477
-94,291
-94,02
-93,666
-93,234
-92,727
-92,149
-91,505
-90,798
-90,032
-89,212
-88,342
-87,426
-86,469
-85,474
-84,445
-83,387
-82,304
-81,201
-80,08
-78,946
-77,803
-76,655
-75,506
-74,36
-73,22
-72,091
-70,977
-69,881
-68,806
-67,758
-66,738
-65,752
-64,802
-63,891
-63,023
-62,2
-61,424
-60,698
-60,024
-59,402
-58,836
-58,325
-57,872
-57,476
-57,138
-56,859
-56,637
-56,475
-56,37
-56,323
-56,332
-56,396
-56,515
-56,685
-56,906
-57,175
-57,488
-57,843
-58,237
-58,665
-59,124
-59,609
-60,115
-60,638
-61,17
-61,708
-62,245
-62,775
-63,292
-63,788
-64,258
-64,697
-65,097
-65,453
-65,757
-66,005
-66,19
-66,308
-66,353
-66,318
-66,2
-65,995
-65,697
-65,304
-64,813
-64,22
-63,525
-62,728
-61,833
-60,84
-59,755
-58,579
-57,319
-55,98
-54,568
-53,085
-51,537
-49,927
-48,263
-46,554
-44,812
-43,046
-41,267
-39,484
-37,709
-35,952
-34,223
-32,524
-30,862
-29,246
-27,691
-26,224
-24,869
-23,64
-22,555
-21,625
-20,849
-20,227
-19,748
-19,382
-19,102
-18,887
-18,718
-18,597
-18,508
-18,422
-18,309
-18,12
-17,815
-17,379
-16,784
-16,018
-15,116
-14,119
-13,106
-12,192
-11,442
-10,929
-10,742
-10,944
-11,649
-12,989
-15,029
-17,914
-21,812
-26,723
-32,582
-39,137
-45,823
-52,144
-57,685
-61,855
-64,273
-64,962
-64,161
-62,777
-62,213
-63,511
-67,578
-75,225
-86,424
-100,363
-115,568
-129,211
-137,74
-138,049
-126,999
-101,846
-61,538
-6,326
62,308
140,608
223,393
305,225
379,716
440,352
482,495
502,695
498,619
470,737
421,606
354,961
276,57
193,273
110,8
34,634
-29,91
-79,876
-114,176
-132,971
-138,514
-134,248
-123,214
-108,894
-95,23
-84,667
-78,508
-77,343
-80,436
-86,47
-94,368
-102,667
-109,591
-114,211
-116,162
-115,388
-112,469
-108,102
-102,799
-97,241
-92,151
-87,878
-84,6
-82,371
-81,025
-80,431
-80,51
-81,097
-82,04
-83,243
-84,59
-85,999
-87,402
-88,674
-89,709
-90,442
-90,815
-90,813
-90,438
-89,684
-88,567
-87,125
-85,395
-83,421
-81,242
-78,886
-76,395
-73,818
-71,211
-68,637
-66,142
-63,755
-61,501
-59,391
-57,431
-55,621
-53,952
-52,405
-50,965
-49,619
-48,356
-47,168
-46,043
-44,964
-43,916
-42,88
-41,843
-40,792
-39,715
-38,599
-37,436
-36,218
-34,939
-33,597
-32,187
-30,704
-29,141
-27,494
-25,759
-23,935
-22,018
-20,008
-17,905
-15,71
-13,429
-11,066
-8,626
-6,116
-3,545
-0,92
1,749
4,451
7,176
9,91
12,642
15,358
18,045
20,689
23,278
25,797
28,234
30,576
32,812
34,929
36,918
38,767
40,469
42,015
43,397
44,608
45,644
46,5
47,173
47,66
47,96
48,073
48,001
47,744
47,306
46,69
45,9
44,943
43,823
42,549
41,128
39,568
37,879
36,071
34,155
32,14
30,038
27,861
25,618
23,321
20,982
18,611
16,219
13,816
11,412
9,016
6,637
4,284
1,965
-0,313
-2,544
-4,721
-6,838
-8,891
-10,874
-12,783
-14,613
-16,362
-18,026
-19,602
-21,088
-22,483
-23,785
-24,996
-26,115
-27,142
-28,081
-28,933
-29,701
-30,388
-30,997
-31,532
-31,998
-32,4
-32,742
-33,028
-33,264
-33,454
-33,604
-33,717
-33,798
-33,852
-33,883
-33,893
-33,889
-33,872
-33,848
-33,82
-33,792
-33,766
-33,748
-33,738
-33,742
-33,76
-33,795
-33,848
-33,922
-34,015
-34,129
-34,263
-34,417
-34,587
-34,774
-34,973
-35,183
-35,401
-35,622
-35,843
-36,061
-36,273
-36,473
-36,66
-36,829
-36,977
-37,101
-37,198
-37,265
-37,3
-37,299
-37,261
-37,183
-37,064
-36,901
-36,694
-36,442
-36,143
-35,797
-35,406
-34,97
-34,491
-33,97
-33,41
-32,814
-32,187
-31,532
-30,854
-30,159
-29,45
-28,735
-28,018
-27,306
-26,602
-25,914
-25,247
-24,604
-23,992
-23,415
-22,876
-22,379
-21,928
-21,525
-21,172
-20,87
-20,622
-20,427
-20,285
-20,196
-20,16
-20,173
-20,233
-20,337
-20,48
-20,659
-20,867
-21,097
-21,343
-21,597
-21,852
-22,099
-22,329
-22,535
-22,706
-22,837
-22,917
-22,941
-22,899
-22,785
-22,593
-22,317
-21,953
-21,495
-20,941
-20,289
-19,538
-18,69
-17,746
-16,711
-15,587
-14,38
-13,096
-11,74
-10,318
-8,837
-7,302
-5,72
-4,102
-2,46
-0,807
0,845
2,483
4,095
5,667
7,188
8,652
10,053
11,385
12,635
13,784
14,814
15,71
16,458
17,047
17,472
17,733
17,841
17,821
17,694
17,481
17,198
16,849
16,443
15,994
15,529
15,078
14,676
14,344
14,105
13,989
13,998
14,096
14,227
14,3
14,244
14,027
13,61
12,924
11,903
10,453
8,475
5,934
2,728
-1,331
-6,272
-12,006
-18,23
-24,318
-29,685
-33,95
-36,625
-37,206
-35,678
-32,349
-28,177
-24,916
-24,017
-26,436
-33,076
-44,363
-59,662
-77,56
-95,232
-108,56
-113,879
-107,515
-86,152
-48,057
7,423
77,413
156,832
242,223
327,737
410,253
487,429
547,489
583,742
590,807
560,234
499,228
413,275
303,369
184,774
69,258
-31,967
-99,687
-132,221
-140,226
-132,298
-122,721
-117,593
-110,773
-100,613
-87,354
-72,293
-60,963
-55,851
-55,828
-59,462
-64,979
-70,611
-75,014
-77,465
-77,453
-74,963
-70,764
-65,575
-59,908
-54,43
-49,723
-46,072
-43,682
-42,552
-42,43
-43,136
-44,51
-46,345
-48,48
-50,764
-53,054
-55,245
-57,233
-58,926
-60,255
-61,166
-61,634
-61,656
-61,234
-60,385
-59,15
-57,567
-55,679
-53,534
-51,165
-48,618
-45,946
-43,203
-40,449
-37,729
-35,072
-32,501
-30,031
-27,669
-25,417
-23,272
-21,217
-19,243
-17,343
-15,512
-13,747
-12,043
-10,389
-8,777
-7,196
-5,641
-4,105
-2,583
-1,069
0,439
1,946
3,45
4,951
6,451
7,952
9,457
10,969
12,489
14,019
15,561
17,116
18,684
20,266
21,859
23,461
25,071
26,685
28,303
29,918
31,529
33,132
34,721
36,293
37,843
39,365
40,854
42,304
43,709
45,063
46,359
47,592
48,754
49,84
50,843
51,758
52,579
53,301
53,919
54,429
54,826
55,108
55,272
55,315
55,237
55,035
54,71
54,262
53,692
53
52,19
51,263
50,221
49,068
47,808
46,444
44,98
43,422
41,774
40,042
38,232
36,35
34,404
32,399
30,344
28,245
26,11
23,948
21,766
19,571
17,371
15,173
12,986
10,815
8,668
6,551
4,47
2,431
0,439
-1,499
-3,38
-5,198
-6,949
-8,63
-10,236
-11,765
-13,213
-14,577
-15,857
-17,05
-18,155
-19,171
-20,097
-20,935
-21,685
-22,347
-22,925
-23,42
-23,836
-24,175
-24,441
-24,638
-24,77
-24,841
-24,855
-24,816
-24,73
-24,599
-24,43
-24,225
-23,989
-23,727
-23,442
-23,139
-22,822
-22,493
-22,157
-21,818
-21,477
-21,14
-20,808
-20,484
-20,171
-19,87
-19,585
-19,316
-19,065
-18,831
-18,616
-18,419
-18,24
-18,078
-17,933
-17,802
-17,684
-17,578
-17,483
-17,397
-17,317
-17,243
-17,173
-17,104
-17,036
-16,968
-16,897
-16,823
-16,745
-16,663
-16,575
-16,481
-16,381
-16,274
-16,161
-16,041
-15,915
-15,783
-15,645
-15,503
-15,357
-15,21
-15,062
-14,916
-14,773
-14,635
-14,506
-14,387
-14,28
-14,189
-14,114
-14,059
-14,026
-14,018
-14,036
-14,083
-14,159
-14,267
-14,406
-14,579
-14,785
-15,023
-15,293
-15,595
-15,927
-16,289
-16,678
-17,093
-17,531
-17,989
-18,465
-18,955
-19,455
-19,961
-20,467
-20,97
-21,463
-21,943
-22,404
-22,839
-23,243
-23,611
-23,937
-24,216
-24,441
-24,607
-24,71
-24,744
-24,706
-24,591
-24,396
-24,119
-23,759
-23,318
-22,795
-22,194
-21,516
-20,763
-19,94
-19,051
-18,096
-17,078
-16,001
-14,867
-13,683
-12,457
-11,196
-9,909
-8,605
-7,292
-5,981
-4,679
-3,39
-2,118
-0,866
0,354
1,522
2,621
3,638
4,558
5,371
6,071
6,659
7,145
7,557
7,92
8,257
8,584
8,905
9,226
9,563
9,937
10,375
10,903
11,532
12,272
13,142
14,131
15,192
16,251
17,196
17,927
18,387
18,511
18,221
17,44
16,073
14,019
11,24
7,643
3,076
-2,484
-8,956
-16,062
-23,226
-29,867
-35,548
-39,732
-41,865
-41,821
-39,77
-36,486
-33,511
-32,197
-33,534
-38,501
-47,65
-60,572
-76,155
-91,908
-103,993
-108,893
-102,929
-82,656
-46,193
7,384
75,727
154,078
238,836
324,32
407,701
486,363
548,776
586,803
591,161
553,623
484,168
393,12
291,126
193,156
101,435
17,756
-52,123
-107,117
-144,296
-161,692
-162,409
-150,595
-130,206
-105,999
-82,716
-63,26
-49,368
-41,881
-39,91
-41,833
-46,387
-51,8
-55,982
-57,921
-57,12
-53,494
-47,796
-40,797
-33,078
-25,431
-18,613
-12,985
-8,741
-5,886
-4,176
-3,442
-3,535
-4,248
-5,412
-6,873
-8,497
-10,177
-11,798
-13,258
-14,478
-15,394
-15,974
-16,212
-16,099
-15,651
-14,907
-13,897
-12,662
-11,24
-9,655
-7,945
-6,161
-4,354
-2,587
-0,906
0,664
2,1
3,39
4,533
5,528
6,387
7,137
7,793
8,37
8,879
9,329
9,73
10,099
10,453
10,805
11,17
11,558
11,978
12,439
12,95
13,513
14,131
14,803
15,53
16,314
17,157
18,061
19,027
20,054
21,142
22,292
23,501
24,765
26,08
27,44
28,839
30,272
31,73
33,206
34,692
36,177
37,655
39,114
40,545
41,938
43,282
44,566
45,782
46,918
47,966
48,915
49,758
50,487
51,095
51,576
51,923
52,134
52,203
52,128
51,906
51,537
51,02
50,355
49,543
48,587
47,49
46,257
44,89
43,397
41,782
40,053
38,217
36,281
34,253
32,141
29,955
27,703
25,394
23,038
20,644
18,221
15,778
13,325
10,868
8,416
5,977
3,557
1,164
-1,199
-3,524
-5,807
-8,044
-10,231
-12,364
-14,441
-16,459
-18,416
-20,312
-22,143
-23,911
-25,614
-27,252
-28,825
-30,332
-31,775
-33,154
-34,47
-35,722
-36,913
-38,044
-39,115
-40,128
-41,085
-41,985
-42,83
-43,622
-44,36
-45,047
-45,681
-46,264
-46,795
-47,276
-47,705
-48,083
-48,409
-48,683
-48,904
-49,071
-49,185
-49,244
-49,249
-49,198
-49,091
-48,929
-48,711
-48,439
-48,111
-47,73
-47,296
-46,81
-46,274
-45,69
-45,059
-44,384
-43,667
-42,911
-42,117
-41,29
-40,431
-39,544
-38,632
-37,699
-36,747
-35,781
-34,803
-33,819
-32,831
-31,845
-30,863
-29,891
-28,933
-27,993
-27,075
-26,184
-25,323
-24,498
-23,71
-22,965
-22,264
-21,613
-21,012
-20,464
-19,971
-19,535
-19,157
-18,838
-18,578
-18,377
-18,236
-18,154
-18,13
-18,164
-18,256
-18,404
-18,607
-18,864
-19,174
-19,533
-19,941
-20,394
-20,888
-21,42
-21,986
-22,582
-23,202
-23,843
-24,499
-25,164
-25,832
-26,498
-27,156
-27,799
-28,421
-29,016
-29,578
-30,102
-30,583
-31,015
-31,394
-31,717
-31,978
-32,176
-32,305
-32,363
-32,345
-32,25
-32,074
-31,814
-31,468
-31,034
-30,513
-29,906
-29,216
-28,446
-27,601
-26,684
-25,701
-24,658
-23,56
-22,408
-21,207
-19,96
-18,675
-17,359
-16,021
-14,666
-13,301
-11,931
-10,562
-9,199
-7,844
-6,492
-5,144
-3,806
-2,487
-1,206
0,017
1,17
2,239
3,217
4,101
4,886
5,581
6,203
6,769
7,298
7,801
8,282
8,76
9,262
9,816
10,475
11,278
12,254
13,432
14,811
16,373
18,091
19,928
21,832
23,75
25,595
27,263
28,658
29,641
30,116
29,948
28,877
26,818
23,839
20,136
16,227
12,625
9,602
7,6
7,18
8,292
10,584
13,253
14,554
13,131
8,229
-1,209
-15,8
-34,854
-57,01
-79,678
-98,583
-110,111
-111,204
-98,143
-68,298
-20,936
43,442
121,852
208,848
299,254
387,064
464,258
523,891
560,191
569,982
555,362
517,851
457,687
374,922
267,893
145,066
23,602
-79,467
-145,721
-172,03
-170,51
-152,381
-132,054
-116,136
-100,123
-83,796
-67,067
-50,622
-39,565
-35,546
-37,141
-42,979
-50,351
-56,496
-60,476
-61,879
-60,429
-56,686
-51,332
-44,896
-38,214
-32,174
-27,174
-23,39
-20,867
-19,366
-18,707
-18,781
-19,387
-20,337
-21,483
-22,695
-23,877
-24,949
-25,834
-26,464
-26,787
-26,77
-26,412
-25,716
-24,699
-23,402
-21,854
-20,088
-18,14
-16,033
-13,804
-11,498
-9,162
-6,853
-4,61
-2,461
-0,424
1,486
3,268
4,923
6,465
7,917
9,296
10,615
11,887
13,122
14,331
15,532
16,742
17,976
19,25
20,575
21,963
23,425
24,969
26,601
28,324
30,137
32,043
34,042
36,138
38,331
40,622
43,007
45,486
48,057
50,715
53,455
56,269
59,149
62,086
65,069
68,09
71,135
74,192
77,25
80,294
83,311
86,286
89,205
92,054
94,816
97,477
100,023
102,439
104,712
106,828
108,776
110,544
112,122
113,501
114,674
115,632
116,372
116,888
117,177
117,237
117,068
116,668
116,041
115,188
114,114
112,823
111,32
109,614
107,71
105,617
103,344
100,902
98,299
95,547
92,657
89,642
86,514
83,284
79,966
76,573
73,118
69,612
66,07
62,501
58,919
55,335
51,758
48,199
44,668
41,172
37,721
34,321
30,98
27,705
24,5
21,373
18,329
15,371
12,506
9,737
7,067
4,501
2,042
-0,309
-2,547
-4,672
-6,682
-8,574
-10,349
-12,006
-13,545
-14,966
-16,27
-17,458
-18,531
-19,492
-20,342
-21,082
-21,716
-22,244
-22,669
-22,992
-23,217
-23,346
-23,38
-23,322
-23,177
-22,947
-22,636
-22,247
-21,787
-21,258
-20,667
-20,018
-19,317
-18,571
-17,784
-16,964
-16,118
-15,25
-14,368
-13,479
-12,587
-11,699
-10,82
-9,955
-9,11
-8,287
-7,492
-6,729
-6,001
-5,313
-4,667
-4,068
-3,519
-3,023
-2,583
-2,201
-1,88
-1,622
-1,427
-1,298
-1,234
-1,236
-1,303
-1,435
-1,63
-1,886
-2,202
-2,575
-3,003
-3,483
-4,011
-4,586
-5,205
-5,866
-6,565
-7,301
-8,073
-8,881
-9,722
-10,597
-11,504
-12,445
-13,418
-14,423
-15,46
-16,528
-17,625
-18,751
-19,905
-21,086
-22,292
-23,523
-24,777
-26,055
-27,357
-28,683
-30,031
-31,403
-32,798
-34,217
-35,659
-37,124
-38,613
-40,124
-41,656
-43,211
-44,785
-46,377
-47,983
-49,6
-51,223
-52,846
-54,464
-56,068
-57,651
-59,207
-60,729
-62,213
-63,651
-65,041
-66,378
-67,661
-68,888
-70,056
-71,159
-72,192
-73,149
-74,025
-74,813
-75,506
-76,099
-76,583
-76,957
-77,223
-77,382
-77,433
-77,372
-77,192
-76,89
-76,474
-75,948
-75,321
-74,603
-73,809
-72,964
-72,109
-71,282
-70,509
-69,803
-69,164
-68,592
-68,089
-67,651
-67,275
-66,939
-66,617
-66,301
-65,984
-65,658
-65,301
-64,867
-64,276
-63,459
-62,361
-60,944
-59,193
-57,094
-54,647
-51,881
-48,84
-45,603
-42,232
-38,758
-35,206
-31,605
-27,998
-24,469
-21,137
-18,124
-15,573
-13,631
-12,422
-12,056
-12,575
-13,985
-16,283
-19,429
-23,439
-28,356
-34,171
-40,928
-48,709
-57,435
-66,904
-76,701
-86,057
-94,229
-100,62
-104,574
-105,716
-104,123
-100,149
-94,918
-90,166
-87,372
-87,922
-92,928
-102,351
-115,234
-129,87
-142,943
-150,46
-148,768
-133,84
-102,49
-53,736
11,922
92,118
181,768
274,804
364,763
443,721
504,497
542,067
552,731
535,509
492,72
428,073
346,722
256,157
163,916
76,672
0,821
-59,638
-103,368
-130,192
-141,565
-140,862
-131,837
-118,418
-104,957
-94,268
-87,62
-85,709
-88,161
-93,78
-101,273
-109,005
-115,046
-118,364
-118,685
-115,993
-110,816
-103,838
-95,667
-87,134
-79,127
-72,135
-66,382
-61,94
-58,68
-56,511
-55,384
-55,149
-55,627
-56,676
-58,162
-60
-62,12
-64,401
-66,697
-68,861
-70,776
-72,381
-73,648
-74,554
-75,088
-75,249
-75,053
-74,54
-73,748
-72,715
-71,476
-70,064
-68,52
-66,896
-65,247
-63,625
-62,067
-60,59
-59,203
-57,905
-56,693
-55,556
-54,477
-53,435
-52,408
-51,385
-50,351
-49,298
-48,212
-47,077
-45,879
-44,605
-43,244
-41,787
-40,23
-38,565
-36,792
-34,909
-32,918
-30,821
-28,621
-26,318
-23,915
-21,413
-18,815
-16,126
-13,35
-10,493
-7,561
-4,563
-1,51
1,588
4,719
7,87
11,029
14,182
17,315
20,412
23,461
26,445
29,351
32,164
34,869
37,453
39,903
42,206
44,349
46,321
48,112
49,713
51,114
52,307
53,286
54,046
54,581
54,887
54,964
54,809
54,423
53,807
52,964
51,898
50,616
49,125
47,433
45,55
43,487
41,256
38,87
36,343
33,689
30,923
28,061
25,118
22,109
19,05
15,957
12,845
9,728
6,622
3,54
0,497
-2,497
-5,428
-8,285
-11,058
-13,737
-16,314
-18,781
-21,131
-23,359
-25,46
-27,43
-29,268
-30,971
-32,541
-33,977
-35,283
-36,462
-37,517
-38,454
-39,278
-39,997
-40,617
-41,145
-41,589
-41,957
-42,256
-42,495
-42,68
-42,82
-42,921
-42,991
-43,035
-43,06
-43,07
-43,071
-43,067
-43,06
-43,055
-43,053
-43,057
-43,068
-43,087
-43,114
-43,149
-43,191
-43,24
-43,293
-43,348
-43,402
-43,454
-43,499
-43,534
-43,557
-43,563
-43,549
-43,514
-43,453
-43,364
-43,245
-43,095
-42,912
-42,694
-42,442
-42,156
-41,836
-41,485
-41,103
-40,694
-40,259
-39,802
-39,327
-38,836
-38,333
-37,823
-37,307
-36,792
-36,279
-35,773
-35,277
-34,795
-34,33
-33,885
-33,462
-33,065
-32,695
-32,354
-32,042
-31,762
-31,513
-31,295
-31,109
-30,953
-30,827
-30,73
-30,659
-30,612
-30,587
-30,582
-30,592
-30,615
-30,647
-30,686
-30,729
-30,772
-30,815
-30,853
-30,887
-30,914
-30,933
-30,944
-30,947
-30,942
-30,929
-30,911
-30,888
-30,863
-30,838
-30,815
-30,798
-30,789
-30,791
-30,807
-30,838
-30,889
-30,961
-31,056
-31,178
-31,327
-31,507
-31,718
-31,962
-32,239
-32,55
-32,893
-33,269
-33,673
-34,105
-34,56
-35,034
-35,524
-36,024
-36,528
-37,029
-37,522
-37,998
-38,452
-38,875
-39,259
-39,598
-39,884
-40,113
-40,278
-40,375
-40,4
-40,35
-40,225
-40,022
-39,742
-39,385
-38,954
-38,451
-37,88
-37,242
-36,542
-35,786
-34,98
-34,131
-33,249
-32,341
-31,417
-30,489
-29,571
-28,677
-27,818
-27,001
-26,232
-25,523
-24,883
-24,329
-23,875
-23,522
-23,275
-23,144
-23,133
-23,247
-23,48
-23,8
-24,183
-24,61
-25,067
-25,555
-26,071
-26,596
-27,113
-27,602
-28,045
-28,451
-28,819
-29,125
-29,356
-29,512
-29,627
-29,793
-30,092
-30,572
-31,266
-32,156
-33,24
-34,56
-36,145
-38,05
-40,321
-42,929
-45,916
-49,409
-53,395
-57,745
-62,09
-65,705
-67,927
-68,266
-66,182
-61,396
-54,05
-44,534
-34,036
-24,396
-17,25
-14,223
-16,635
-24,568
-37,174
-52,781
-67,997
-78,702
-80,999
-70,467
-43,582
0,874
62,636
139,415
225,972
315,994
402,696
477,829
533,986
565,964
569,812
544,375
492,154
417,36
325,776
225,405
124,289
29,608
-51,58
-114,284
-156,608
-178,45
-181,54
-169,564
-146,755
-117,475
-86,757
-58,894
-36,31
-20,203
-10,619
-6,583
-6,862
-10,111
-14,445
-18,05
-20,031
-20,103
-18,463
-15,689
-12,28
-8,655
-5,413
-3,158
-2,153
-2,426
-3,814
-5,994
-8,731
-11,84
-15,09
-18,26
-21,166
-23,672
-25,719
-27,305
-28,42
-29,055
-29,209
-28,882
-28,105
-26,92
-25,369
-23,498
-21,345
-18,961
-16,399
-13,72
-10,987
-8,249
-5,536
-2,873
-0,274
2,249
4,688
7,041
9,317
11,521
13,66
15,737
17,752
19,709
21,615
23,479
25,31
27,113
28,893
30,653
32,396
34,125
35,842
37,546
39,237
40,913
42,577
44,233
45,884
47,534
49,186
50,843
52,509
54,187
55,879
57,586
59,309
61,047
62,8
64,568
66,347
68,137
69,933
71,732
73,529
75,32
77,1
78,86
80,595
82,297
83,959
85,572
87,13
88,624
90,046
91,389
92,646
93,808
94,869
95,822
96,659
97,375
97,962
98,414
98,726
98,892
98,909
98,771
98,478
98,026
97,414
96,642
95,711
94,621
93,375
91,976
90,428
88,735
86,903
84,938
82,846
80,634
78,311
75,883
73,359
70,746
68,053
65,287
62,456
59,568
56,631
53,653
50,642
47,605
44,551
41,489
38,424
35,367
32,323
29,301
26,309
23,352
20,439
17,575
14,767
12,021
9,344
6,74
4,214
1,772
-0,581
-2,842
-5,007
-7,07
-9,029
-10,879
-12,616
-14,236
-15,734
-17,107
-18,349
-19,458
-20,428
-21,256
-21,939
-22,473
-22,856
-23,084
-23,157
-23,073
-22,829
-22,427
-21,865
-21,145
-20,267
-19,233
-18,046
-16,709
-15,226
-13,6
-11,837
-9,941
-7,919
-5,776
-3,521
-1,161
1,296
3,841
6,464
9,154
11,901
14,693
17,518
20,364
23,22
26,074
28,913
31,726
34,5
37,226
39,892
42,487
45,002
47,427
49,753
51,974
54,081
56,069
57,932
59,665
61,265
62,728
64,051
65,233
66,272
67,168
67,921
68,533
69,005
69,341
69,545
69,62
69,573
69,409
69,133
68,754
68,278
67,711
67,062
66,337
65,544
64,69
63,781
62,826
61,83
60,799
59,74
58,657
57,555
56,438
55,312
54,179
53,043
51,908
50,777
49,654
48,541
47,442
46,358
45,293
44,248
43,226
42,227
41,252
40,303
39,38
38,482
37,611
36,766
35,947
35,154
34,387
33,646
32,931
32,243
31,582
30,948
30,342
29,766
29,221
28,709
28,23
27,788
27,383
27,018
26,693
26,41
26,169
25,97
25,813
25,699
25,625
25,592
25,598
25,641
25,719
25,832
25,978
26,153
26,355
26,584
26,836
27,109
27,4
27,704
28,015
28,329
28,638
28,937
29,219
29,477
29,707
29,905
30,07
30,198
30,285
30,328
30,32
30,256
30,135
29,95
29,699
29,382
29
28,561
28,071
27,529
26,936
26,281
25,551
24,74
23,84
22,847
21,767
20,611
19,398
18,162
16,93
15,723
14,56
13,451
12,41
11,461
10,627
9,943
9,443
9,153
9,104
9,306
9,724
10,309
10,981
11,651
12,268
12,771
13,084
13,139
12,82
12,01
10,649
8,606
5,711
1,925
-2,71
-7,913
-13,057
-17,555
-20,9
-22,489
-21,995
-19,5
-15,357
-10,705
-7,286
-6,582
-10,037
-18,828
-32,979
-51,556
-72,76
-93,135
-108,48
-114,885
-108,097
-84,628
-43,166
16,059
90,912
176,458
266,54
354,551
432,507
492,929
530,489
541,151
523,257
478,628
410,92
325,3
229,274
130,819
36,974
-45,334
-110,73
-156,809
-182,984
-190,369
-182,246
-162,775
-136,159
-107,302
-80,705
-59,027
-43,7
-35,072
-32,305
-34,137
-39,205
-45,57
-51,243
-55,163
-56,924
-56,604
-54,741
-51,851
-48,37
-44,936
-42,238
-40,614
-40,152
-40,747
-42,111
-44,037
-46,389
-48,977
-51,6
-54,106
-56,364
-58,302
-59,92
-61,202
-62,125
-62,683
-62,868
-62,69
-62,185
-61,392
-60,345
-59,08
-57,629
-56,029
-54,325
-52,561
-50,786
-49,037
-47,334
-45,694
-44,127
-42,64
-41,238
-39,916
-38,661
-37,461
-36,306
-35,187
-34,099
-33,032
-31,975
-30,915
-29,839
-28,738
-27,601
-26,423
-25,195
-23,911
-22,565
-21,155
-19,68
-18,138
-16,526
-14,842
-13,082
-11,247
-9,334
-7,344
-5,278
-3,137
-0,924
1,357
3,701
6,101
8,55
11,042
13,569
16,122
18,692
21,268
23,842
26,4
28,934
31,429
33,873
36,255
38,56
40,777
42,892
44,893
46,77
48,509
50,101
51,535
52,803
53,895
54,804
55,523
56,046
56,368
56,485
56,394
56,093
55,582
54,861
53,933
52,799
51,462
49,928
48,201
46,287
44,192
41,925
39,493
36,905
34,171
31,302
28,308
25,203
21,996
18,702
15,332
11,9
8,417
4,898
1,353
-2,203
-5,758
-9,301
-12,818
-16,299
-19,732
-23,107
-26,412
-29,638
-32,776
-35,816
-38,752
-41,574
-44,275
-46,849
-49,289
-51,589
-53,744
-55,749
-57,601
-59,296
-60,831
-62,206
-63,42
-64,472
-65,364
-66,098
-66,675
-67,099
-67,373
-67,502
-67,49
-67,342
-67,065
-66,665
-66,15
-65,525
-64,8
-63,981
-63,077
-62,095
-61,045
-59,934
-58,771
-57,566
-56,326
-55,062
-53,782
-52,495
-51,211
-49,937
-48,684
-47,458
-46,266
-45,117
-44,016
-42,968
-41,98
-41,056
-40,198
-39,412
-38,698
-38,06
-37,497
-37,011
-36,6
-36,265
-36,003
-35,814
-35,693
-35,64
-35,651
-35,722
-35,851
-36,033
-36,265
-36,541
-36,858
-37,209
-37,591
-37,997
-38,422
-38,861
-39,31
-39,762
-40,214
-40,663
-41,104
-41,533
-41,948
-42,346
-42,724
-43,082
-43,418
-43,731
-44,021
-44,29
-44,537
-44,765
-44,976
-45,17
-45,351
-45,52
-45,679
-45,831
-45,977
-46,121
-46,266
-46,413
-46,567
-46,731
-46,908
-47,101
-47,313
-47,547
-47,805
-48,089
-48,401
-48,741
-49,112
-49,514
-49,949
-50,416
-50,918
-51,452
-52,019
-52,619
-53,248
-53,903
-54,583
-55,282
-56
-56,731
-57,473
-58,222
-58,975
-59,728
-60,479
-61,222
-61,953
-62,667
-63,358
-64,021
-64,651
-65,242
-65,787
-66,281
-66,72
-67,101
-67,423
-67,681
-67,873
-67,995
-68,048
-68,028
-67,932
-67,756
-67,494
-67,142
-66,703
-66,177
-65,568
-64,88
-64,114
-63,277
-62,376
-61,417
-60,399
-59,318
-58,162
-56,93
-55,632
-54,283
-52,905
-51,517
-50,133
-48,772
-47,463
-46,218
-45,037
-43,909
-42,806
-41,718
-40,66
-39,655
-38,739
-37,929
-37,22
-36,595
-36,028
-35,479
-34,899
-34,222
-33,362
-32,272
-30,951
-29,413
-27,71
-25,871
-23,879
-21,714
-19,36
-16,803
-14,065
-11,215
-8,323
-5,508
-2,923
-0,698
0,99
1,988
2,22
1,59
0,045
-2,415
-5,907
-10,585
-16,436
-23,372
-31,113
-39,014
-46,495
-53,045
-57,958
-60,762
-61,435
-60,243
-58,165
-56,825
-57,613
-61,8
-70,512
-83,821
-100,716
-119,327
-136,536
-148,498
-151,218
-140,772
-114,055
-69,425
-9,188
62,807
144,208
229,639
317,093
404,472
478,966
532,012
554,598
537,054
487,823
416,367
331,429
246,288
163,268
83,274
10,686
-52,284
-101,272
-133,435
-149,762
-152,434
-145,043
-130,933
-113,266
-95,937
-81,519
-71,274
-65,76
-64,289
-65,773
-69,478
-74,131
-77,94
-79,938
-79,721
-77,257
-73,195
-68,132
-62,422
-56,662
-51,544
-47,44
-44,548
-42,88
-42,187
-42,288
-43,066
-44,334
-45,923
-47,679
-49,458
-51,157
-52,692
-53,988
-54,981
-55,625
-55,888
-55,768
-55,263
-54,391
-53,193
-51,704
-49,967
-48,028
-45,915
-43,673
-41,35
-38,994
-36,659
-34,384
-32,19
-30,096
-28,113
-26,244
-24,487
-22,834
-21,264
-19,76
-18,311
-16,905
-15,531
-14,18
-12,833
-11,476
-10,095
-8,677
-7,213
-5,692
-4,107
-2,451
-0,718
1,092
2,98
4,947
6,995
9,124
11,336
13,63
16,005
18,457
20,984
23,583
26,246
28,966
31,735
34,543
37,381
40,238
43,101
45,96
48,799
51,607
54,37
57,074
59,704
62,247
64,689
67,015
69,214
71,273
73,18
74,926
76,499
77,893
79,1
80,114
80,93
81,544
81,955
82,16
82,16
81,955
81,547
80,94
80,138
79,147
77,973
76,623
75,106
73,43
71,607
69,645
67,556
65,352
63,044
60,643
58,164
55,616
53,014
50,369
47,692
44,996
42,29
39,585
36,89
34,215
31,566
28,951
26,377
23,849
21,373
18,952
16,59
14,29
12,055
9,888
7,789
5,759
3,801
1,913
0,097
-1,648
-3,323
-4,927
-6,462
-7,929
-9,328
-10,662
-11,931
-13,137
-14,282
-15,366
-16,392
-17,36
-18,271
-19,126
-19,925
-20,669
-21,358
-21,991
-22,569
-23,089
-23,552
-23,958
-24,304
-24,591
-24,817
-24,983
-25,087
-25,129
-25,111
-25,031
-24,891
-24,691
-24,433
-24,118
-23,747
-23,323
-22,847
-22,323
-21,752
-21,137
-20,481
-19,787
-19,059
-18,299
-17,512
-16,702
-15,872
-15,026
-14,17
-13,307
-12,442
-11,58
-10,724
-9,88
-9,052
-8,244
-7,46
-6,704
-5,98
-5,291
-4,64
-4,029
-3,461
-2,937
-2,46
-2,03
-1,649
-1,318
-1,037
-0,806
-0,627
-0,498
-0,419
-0,391
-0,413
-0,483
-0,601
-0,765
-0,975
-1,229
-1,525
-1,862
-2,239
-2,654
-3,104
-3,589
-4,106
-4,653
-5,23
-5,833
-6,463
-7,117
-7,794
-8,495
-9,217
-9,96
-10,723
-11,506
-12,307
-13,127
-13,964
-14,816
-15,684
-16,566
-17,462
-18,37
-19,29
-20,22
-21,158
-22,105
-23,057
-24,014
-24,973
-25,932
-26,889
-27,842
-28,788
-29,725
-30,651
-31,562
-32,455
-33,327
-34,175
-34,994
-35,781
-36,53
-37,237
-37,897
-38,506
-39,06
-39,554
-39,983
-40,343
-40,629
-40,839
-40,969
-41,014
-40,972
-40,84
-40,616
-40,299
-39,887
-39,38
-38,778
-38,083
-37,299
-36,428
-35,475
-34,445
-33,342
-32,174
-30,946
-29,663
-28,331
-26,955
-25,541
-24,096
-22,632
-21,156
-19,679
-18,211
-16,761
-15,341
-13,958
-12,617
-11,321
-10,075
-8,888
-7,777
-6,759
-5,844
-5,045
-4,373
-3,834
-3,429
-3,148
-2,965
-2,857
-2,802
-2,786
-2,803
-2,847
-2,902
-2,944
-2,94
-2,861
-2,69
-2,411
-1,997
-1,441
-0,775
-0,059
0,606
1,129
1,462
1,563
1,373
0,828
-0,16
-1,707
-3,878
-6,761
-10,523
-15,194
-20,715
-26,881
-33,147
-38,9
-43,66
-46,815
-47,757
-46,445
-43,137
-38,538
-34,257
-31,739
-32,036
-36,522
-46,113
-60,349
-78,006
-96,686
-112,268
-120,979
-119,475
-103,695
-70,646
-19,525
49,109
132,376
224,566
319,64
411,119
490,902
551,723
588,314
596,625
575,434
527,011
455,086
365,017
264,609
161,928
64,278
-21,179
-89,209
-137,561
-165,731
-175,035
-168,958
-151,762
-127,829
-102,159
-79,051
-60,962
-49,146
-43,693
-43,54
-47,263
-53,326
-59,736
-64,662
-67,189
-67,016
-64,399
-60,035
-54,583
-48,643
-42,934
-38,108
-34,496
-32,204
-31,139
-31,06
-31,774
-33,121
-34,914
-36,972
-39,149
-41,323
-43,378
-45,224
-46,782
-47,983
-48,79
-49,184
-49,155
-48,706
-47,863
-46,663
-45,145
-43,355
-41,325
-39,089
-36,692
-34,187
-31,63
-29,081
-26,582
-24,16
-21,838
-19,629
-17,539
-15,572
-13,716
-11,956
-10,279
-8,678
-7,146
-5,678
-4,265
-2,894
-1,554
-0,233
1,078
2,387
3,702
5,03
6,375
7,74
9,127
10,534
11,965
13,422
14,909
16,428
17,983
19,576
21,209
22,885
24,604
26,366
28,169
30,013
31,893
33,807
35,75
37,717
39,701
41,697
43,695
45,688
47,667
49,621
51,541
53,416
55,236
56,99
58,667
60,259
61,753
63,142
64,416
65,567
66,585
67,464
68,196
68,775
69,195
69,452
69,541
69,458
69,201
68,769
68,161
67,376
66,416
65,283
63,98
62,511
60,882
59,098
57,166
55,096
52,894
50,572
48,138
45,604
42,98
40,277
37,506
34,678
31,806
28,901
25,973
23,035
20,096
17,168
14,26
11,383
8,544
5,752
3,016
0,344
-2,259
-4,784
-7,226
-9,58
-11,839
-13,999
-16,058
-18,011
-19,855
-21,591
-23,215
-24,728
-26,13
-27,421
-28,601
-29,673
-30,637
-31,496
-32,253
-32,909
-33,468
-33,934
-34,309
-34,598
-34,803
-34,93
-34,98
-34,958
-34,867
-34,709
-34,488
-34,207
-33,868
-33,476
-33,033
-32,542
-32,007
-31,43
-30,815
-30,164
-29,48
-28,767
-28,027
-27,264
-26,48
-25,679
-24,864
-24,039
-23,207
-22,372
-21,536
-20,704
-19,877
-19,058
-18,251
-17,457
-16,679
-15,92
-15,182
-14,469
-13,781
-13,124
-12,498
-11,906
-11,351
-10,835
-10,359
-9,926
-9,537
-9,193
-8,895
-8,643
-8,439
-8,282
-8,172
-8,107
-8,087
-8,108
-8,168
-8,264
-8,394
-8,553
-8,738
-8,947
-9,175
-9,42
-9,68
-9,951
-10,231
-10,517
-10,806
-11,096
-11,384
-11,668
-11,944
-12,212
-12,468
-12,711
-12,939
-13,151
-13,345
-13,521
-13,678
-13,817
-13,937
-14,04
-14,128
-14,202
-14,266
-14,323
-14,377
-14,433
-14,494
-14,566
-14,652
-14,757
-14,884
-15,034
-15,211
-15,414
-15,645
-15,905
-16,193
-16,511
-16,86
-17,239
-17,651
-18,096
-18,574
-19,083
-19,623
-20,187
-20,772
-21,373
-21,981
-22,59
-23,191
-23,774
-24,332
-24,857
-25,339
-25,764
-26,116
-26,38
-26,552
-26,627
-26,605
-26,49
-26,29
-26,02
-25,702
-25,359
-25,008
-24,66
-24,32
-23,989
-23,668
-23,358
-23,064
-22,779
-22,482
-22,141
-21,718
-21,169
-20,445
-19,484
-18,209
-16,556
-14,485
-11,967
-8,992
-5,567
-1,711
2,549
7,184
12,149
17,39
22,827
28,365
33,898
39,317
44,504
49,325
53,671
57,465
60,64
63,157
65
66,169
66,68
66,542
65,739
64,247
62,077
59,282
55,95
52,162
47,963
43,407
38,515
33,286
27,773
21,947
15,674
8,949
1,873
-5,267
-11,836
-17,208
-21,002
-22,757
-22,038
-18,881
-13,58
-7,053
-1,08
2,782
3,388
-0,352
-8,964
-21,884
-37,813
-54,11
-66,678
-71,66
-65,525
-44,874
-7,509
47,004
117,555
200,863
291,554
383,321
469,022
541,328
593,514
621,904
626,564
606,558
561,467
490,58
390,04
267,528
140,51
25,924
-55,267
-97,074
-111,432
-108,822
-102,247
-97,943
-89,983
-76,702
-59,326
-39,938
-24,382
-15,561
-12,882
-15,276
-20,846
-27,513
-33,468
-37,546
-39,135
-38,144
-35,21
-30,978
-25,934
-20,802
-16,332
-12,933
-10,83
-10,023
-10,232
-11,258
-12,965
-15,146
-17,624
-20,242
-22,857
-25,367
-27,688
-29,737
-31,45
-32,776
-33,688
-34,185
-34,27
-33,965
-33,316
-32,359
-31,136
-29,689
-28,044
-26,241
-24,33
-22,362
-20,394
-18,47
-16,615
-14,852
-13,197
-11,655
-10,227
-8,906
-7,671
-6,509
-5,409
-4,364
-3,368
-2,411
-1,479
-0,56
0,359
1,29
2,242
3,225
4,248
5,317
6,438
7,614
8,845
10,132
11,479
12,889
14,363
15,903
17,509
19,18
20,917
22,717
24,578
26,494
28,46
30,471
32,52
34,6
36,703
38,82
40,942
43,059
45,162
47,238
49,276
51,265
53,191
55,042
56,804
58,467
60,015
61,438
62,723
63,859
64,836
65,643
66,271
66,713
66,961
67,009
66,852
66,487
65,909
65,119
64,115
62,9
61,474
59,842
58,008
55,977
53,754
51,348
48,767
46,018
43,113
40,062
36,876
33,569
30,154
26,643
23,052
19,395
15,686
11,94
8,172
4,397
0,629
-3,118
-6,829
-10,489
-14,086
-17,608
-21,04
-24,374
-27,597
-30,701
-33,678
-36,52
-39,22
-41,774
-44,175
-46,419
-48,503
-50,424
-52,179
-53,768
-55,191
-56,449
-57,546
-58,484
-59,268
-59,903
-60,394
-60,748
-60,97
-61,068
-61,049
-60,921
-60,692
-60,374
-59,974
-59,505
-58,976
-58,398
-57,785
-57,145
-56,489
-55,826
-55,164
-54,51
-53,872
-53,254
-52,662
-52,101
-51,578
-51,098
-50,671
-50,302
-49,996
-49,755
-49,582
-49,476
-49,436
-49,455
-49,526
-49,645
-49,808
-50,018
-50,282
-50,599
-50,963
-51,364
-51,788
-52,214
-52,617
-52,963
-53,211
-53,338
-53,327
-53,178
-52,903
-52,506
-51,99
-51,345
-50,554
-49,608
-48,509
-47,258
-45,871
