Nom
Date de naissance
Date d’enregistrement,2022-02-27 15:54:11 +0100
Classification,Rythme sinusal
Symptômes,
Version du logiciel,1.52
Appareil,"Watch5,1"
Fréquence d’échantillonnage,511,242 hertz


Dérivation,Dérivation DI
Unité,µV

621,077
432,126
312,106
187,481
93,972
-3,24
-83,152
-109,682
-84,577
-28,183
41,475
105,731
152,294
178,237
183,444
176,239
167,071
160,811
162,454
171,121
181,082
190,408
197,244
201,223
205,202
210,145
215,909
222,598
229,396
235,721
241,78
247,639
253,238
258,678
263,954
268,981
273,786
278,391
282,744
286,818
290,58
293,952
296,871
299,282
301,135
302,421
303,146
303,339
303,05
302,32
301,187
299,696
297,886
295,799
293,475
290,944
288,242
285,414
282,51
279,596
276,727
273,932
271,227
268,609
266,056
263,564
261,129
258,74
256,4
254,11
251,872
249,702
247,616
245,619
243,713
241,889
240,14
238,47
236,89
235,415
234,067
232,861
231,81
230,929
230,227
229,703
229,358
229,185
229,177
229,332
229,644
230,102
230,693
231,402
232,213
233,109
234,066
235,057
236,06
237,056
238,041
239,009
239,95
240,844
241,666
242,389
242,995
243,476
243,824
244,027
244,07
243,941
243,643
243,182
242,552
241,719
240,631
239,232
237,488
235,372
232,872
229,971
226,641
222,851
218,574
213,794
208,492
202,641
196,198
189,113
181,366
172,97
163,971
154,41
144,316
133,705
122,593
111,005
98,971
86,523
73,68
60,459
46,886
33,002
18,865
4,539
-9,935
-24,539
-39,277
-54,145
-69,128
-84,205
-99,353
-114,558
-129,804
-145,064
-160,302
-175,48
-190,567
-205,542
-220,393
-235,111
-249,674
-264,052
-278,206
-292,102
-305,714
-319,015
-331,978
-344,574
-356,78
-368,579
-379,963
-390,925
-401,458
-411,549
-421,187
-430,363
-439,073
-447,313
-455,083
-462,384
-469,218
-475,586
-481,497
-486,958
-491,977
-496,561
-500,715
-504,449
-507,772
-510,694
-513,227
-515,382
-517,173
-518,613
-519,718
-520,504
-520,986
-521,179
-521,099
-520,76
-520,18
-519,373
-518,354
-517,138
-515,739
-514,173
-512,453
-510,595
-508,612
-506,518
-504,326
-502,048
-499,697
-497,284
-494,821
-492,317
-489,783
-487,228
-484,664
-482,097
-479,538
-476,993
-474,47
-471,976
-469,517
-467,098
-464,723
-462,395
-460,117
-457,894
-455,727
-453,618
-451,571
-449,585
-447,665
-445,81
-444,022
-442,301
-440,647
-439,059
-437,538
-436,081
-434,688
-433,359
-432,092
-430,889
-429,749
-428,674
-427,663
-426,716
-425,835
-425,017
-424,262
-423,566
-422,924
-422,334
-421,792
-421,297
-420,847
-420,439
-420,069
-419,734
-419,429
-419,152
-418,896
-418,649
-418,404
-418,154
-417,899
-417,644
-417,397
-417,16
-416,935
-416,721
-416,515
-416,313
-416,103
-415,861
-415,564
-415,184
-414,701
-414,1
-413,363
-412,463
-411,369
-410,037
-408,429
-406,52
-404,289
-401,732
-398,86
-395,691
-392,261
-388,623
-384,843
-381,013
-377,232
-373,589
-370,191
-367,119
-364,491
-362,51
-361,276
-360,757
-360,817
-361,117
-361,304
-361,169
-360,386
-358,445
-355,148
-350,614
-345,285
-340,251
-336,552
-334,795
-335,729
-340,131
-348,061
-358,809
-370,91
-381,72
-388,294
-388,037
-378,051
-355,151
-318,266
-269,26
-210,458
-145,348
-75,189
3,847
92,121
184,145
269,463
329,76
348,572
319,96
244,625
133,162
4,436
-124,489
-235,438
-314,733
-360,716
-378,25
-379,578
-377,135
-375,031
-371,807
-362,189
-343,03
-316,904
-289,144
-264,971
-246,906
-235,095
-229,116
-228,42
-232,229
-238,908
-246,02
-251,967
-256,161
-258,424
-258,706
-256,658
-252,135
-245,841
-239,071
-232,745
-227,236
-222,582
-218,666
-215,627
-213,625
-212,463
-211,673
-210,837
-209,701
-208,182
-206,335
-204,135
-201,505
-198,439
-194,976
-191,182
-187,125
-182,837
-178,31
-173,549
-168,578
-163,43
-158,158
-152,808
-147,425
-142,051
-136,716
-131,444
-126,257
-121,17
-116,195
-111,341
-106,604
-101,98
-97,466
-93,062
-88,766
-84,578
-80,487
-76,483
-72,559
-68,706
-64,921
-61,203
-57,545
-53,944
-50,391
-46,876
-43,396
-39,953
-36,55
-33,192
-29,887
-26,634
-23,442
-20,324
-17,283
-14,32
-11,425
-8,578
-5,767
-2,989
-0,248
2,443
5,079
7,671
10,227
12,758
15,278
17,793
20,326
22,91
25,558
28,266
31,008
33,728
36,391
38,976
41,467
43,862
46,147
48,296
50,288
52,107
53,731
55,139
56,293
57,129
57,619
57,76
57,577
57,129
56,456
55,579
54,521
53,299
51,933
50,454
48,878
47,211
45,47
43,679
41,873
40,112
38,426
36,821
35,288
33,792
32,311
30,838
29,361
27,868
26,355
24,812
23,243
21,661
20,063
18,444
16,801
15,116
13,392
11,642
9,88
8,135
6,435
4,796
3,234
1,756
0,352
-0,98
-2,243
-3,439
-4,556
-5,59
-6,546
-7,427
-8,244
-9,009
-9,73
-10,431
-11,148
-11,896
-12,675
-13,465
-14,215
-14,893
-15,48
-15,96
-16,332
-16,586
-16,696
-16,645
-16,42
-16
-15,369
-14,492
-13,31
-11,8
-9,96
-7,82
-5,44
-2,866
-0,121
2,77
5,787
8,908
12,104
15,355
18,656
21,987
25,327
28,637
31,856
34,95
37,91
40,742
43,48
46,146
48,745
51,288
53,788
56,251
58,687
61,093
63,456
65,769
68,036
70,267
72,486
74,703
76,918
79,122
81,301
83,44
85,535
87,576
89,55
91,449
93,267
95,006
96,672
98,269
99,797
101,254
102,634
103,936
105,161
106,312
107,392
108,402
109,346
110,227
111,049
111,817
112,53
113,187
113,784
114,32
114,794
115,206
115,556
115,842
116,067
116,232
116,342
116,399
116,406
116,362
116,27
116,132
115,953
115,74
115,499
115,23
114,936
114,618
114,277
113,908
113,502
113,042
112,518
111,917
111,231
110,458
109,591
108,628
107,577
106,443
105,238
103,985
102,7
101,404
100,137
98,933
97,841
96,921
96,229
95,819
95,753
96,078
96,842
98,078
99,796
101,995
104,667
107,788
111,334
115,263
119,504
123,984
128,63
133,332
137,972
142,412
146,488
150,059
153,015
155,255
156,68
157,202
156,739
155,239
152,724
149,179
144,534
138,825
132,182
124,925
117,603
110,678
104,436
99,332
95,917
94,37
94,663
96,146
97,543
98,141
97,484
94,664
88,927
80,181
69,897
61,876
60,14
66,482
78,643
92,87
108,361
127,815
160,252
214,72
293,655
394,847
507,544
617,289
711,033
776,489
804,551
788,839
727,457
621,611
479,99
321,46
167,537
43,664
-31,731
-58,045
-45,283
-14,09
14,082
30,331
33,782
29,863
26,143
24,191
22,29
18,104
9,353
-3,262
-17,38
-30,895
-41,927
-49,716
-54,387
-56,204
-55,688
-53,515
-50,344
-46,899
-43,843
-41,502
-39,967
-39,223
-39,14
-39,615
-40,568
-41,867
-43,371
-44,976
-46,589
-48,149
-49,607
-50,878
-51,864
-52,47
-52,603
-52,214
-51,288
-49,814
-47,801
-45,261
-42,215
-38,696
-34,753
-30,431
-25,78
-20,85
-15,688
-10,351
-4,899
0,609
6,111
11,563
16,935
22,205
27,355
32,373
37,248
41,975
46,555
50,987
55,269
59,395
63,352
67,131
70,731
74,158
77,422
80,531
83,489
86,302
88,979
91,536
93,982
96,313
98,517
100,581
102,506
104,301
105,99
107,595
109,121
110,567
111,923
113,186
114,346
115,381
116,248
116,899
117,307
117,473
117,429
117,201
116,802
116,238
115,506
114,613
113,589
112,469
111,294
110,113
108,992
108,018
107,322
107,026
107,222
107,964
109,259
111,103
113,5
116,437
119,886
123,801
128,109
132,725
137,556
142,477
147,331
151,939
156,076
159,523
162,093
163,621
164,003
163,164
161,041
157,618
152,909
146,954
139,823
131,612
122,434
112,451
101,865
90,898
79,81
68,872
58,344
48,482
39,486
31,518
24,716
19,174
14,956
12,104
10,628
10,506
11,703
14,141
17,703
22,256
27,628
33,62
40,017
46,607
53,208
59,665
65,843
71,622
76,898
81,587
85,627
88,973
91,576
93,403
94,443
94,705
94,225
93,07
91,333
89,096
86,434
83,423
80,122
76,599
72,919
69,114
65,212
61,249
57,267
53,329
49,492
45,8
42,286
38,966
35,847
32,944
30,275
27,84
25,644
23,684
21,95
20,475
19,288
18,403
17,828
17,541
17,511
17,717
18,136
18,733
19,474
20,306
21,165
22,014
22,82
23,557
24,209
24,725
25,051
25,154
25
24,572
23,866
22,866
21,554
19,939
18,045
15,915
13,616
11,192
8,67
6,078
3,434
0,77
-1,88
-4,495
-7,063
-9,572
-12,014
-14,367
-16,604
-18,719
-20,719
-22,629
-24,495
-26,348
-28,211
-30,104
-32,04
-34,028
-36,081
-38,196
-40,361
-42,561
-44,78
-47,007
-49,245
-51,49
-53,742
-55,992
-58,221
-60,418
-62,575
-64,692
-66,781
-68,854
-70,92
-72,997
-75,108
-77,291
-79,596
-82,062
-84,717
-87,568
-90,603
-93,808
-97,167
-100,654
-104,23
-107,844
-111,419
-114,897
-118,231
-121,367
-124,253
-126,817
-128,967
-130,631
-131,76
-132,329
-132,346
-131,825
-130,785
-129,267
-127,327
-125,036
-122,483
-119,733
-116,826
-113,814
-110,752
-107,708
-104,769
-101,999
-99,439
-97,106
-94,998
-93,102
-91,404
-89,879
-88,491
-87,21
-86,008
-84,886
-83,872
-82,98
-82,205
-81,529
-80,921
-80,366
-79,867
-79,441
-79,106
-78,891
-78,83
-78,947
-79,263
-79,786
-80,492
-81,339
-82,265
-83,228
-84,234
-85,32
-86,531
-87,9
-89,433
-91,135
-93,036
-95,17
-97,564
-100,258
-103,262
-106,628
-110,507
-114,984
-120,036
-125,486
-130,89
-135,737
-139,654
-142,219
-142,932
-141,594
-138,337
-133,719
-129,03
-125,605
-124,401
-126,413
-132,456
-142,522
-155,778
-170,398
-183,22
-190,952
-190,621
-178,795
-152,428
-109,872
-52,088
17,2
93,123
171,316
250,883
331,762
409,89
477,88
523,224
532,657
500,422
427,442
322,635
201,036
78,27
-29,53
-110,887
-161,323
-183,593
-188,854
-187,646
-186,097
-185,561
-181,466
-171,21
-156,429
-140,5
-127,902
-120,765
-118,407
-119,48
-122,549
-126,429
-130,139
-132,617
-133,138
-131,597
-128,302
-123,802
-118,618
-113,155
-107,853
-103,141
-99,245
-96,184
-93,836
-91,987
-90,448
-89,089
-87,762
-86,317
-84,672
-82,773
-80,604
-78,184
-75,509
-72,588
-69,465
-66,21
-62,898
-59,61
-56,416
-53,371
-50,539
-47,962
-45,67
-43,682
-41,986
-40,56
-39,365
-38,346
-37,455
-36,642
-35,842
-34,982
-33,99
-32,798
-31,354
-29,619
-27,56
-25,153
-22,389
-19,268
-15,809
-12,045
-8,018
-3,782
0,619
5,151
9,775
14,455
19,158
23,856
28,53
33,171
37,765
42,302
46,771
51,166
55,487
59,742
63,938
68,087
72,192
76,255
80,272
84,239
88,143
91,967
95,689
99,286
102,744
106,058
109,217
112,211
115,031
117,668
120,119
122,374
124,42
126,231
127,785
129,066
130,071
130,804
131,273
131,478
131,408
131,049
130,396
129,445
128,189
126,61
124,684
122,407
119,8
116,907
113,778
110,444
106,928
103,241
99,402
95,439
91,388
87,281
83,14
78,991
74,872
70,837
66,947
63,239
59,714
56,343
53,101
49,979
46,979
44,109
41,365
38,738
36,226
33,831
31,566
29,433
27,422
25,504
23,649
21,844
20,105
18,467
16,958
15,594
14,385
13,339
12,472
11,797
11,318
11,026
10,912
10,971
11,21
11,643
12,281
13,129
14,176
15,406
16,803
18,359
20,063
21,903
23,864
25,934
28,107
30,381
32,755
35,224
37,776
40,399
43,08
45,807
48,57
51,36
54,169
56,986
59,804
62,616
65,418
68,206
70,971
73,706
76,402
79,049
81,639
84,164
86,617
88,988
91,27
93,455
95,541
97,525
99,405
101,177
102,836
104,374
105,784
107,068
108,228
109,266
110,188
111,004
111,735
112,409
113,055
113,696
114,345
115,004
115,679
116,373
117,09
117,834
118,598
119,37
120,146
120,927
121,714
122,499
123,252
123,922
124,462
124,844
125,055
125,099
124,984
124,728
124,366
123,951
123,557
123,255
123,104
123,14
123,397
123,918
124,771
126,05
127,841
130,211
133,219
136,9
141,288
146,382
152,137
158,482
165,32
172,563
180,138
187,972
195,969
204,042
212,097
220,025
227,756
235,164
242,038
248,313
254,038
259,28
264,202
268,813
272,863
276,296
279,288
281,735
283,371
283,885
282,738
279,976
276,383
272,429
268,284
264,367
261,106
259,069
259,217
261,638
265,42
269,973
274,896
279,717
284,196
287,844
289,742
289,679
288,162
285,472
281,847
277,427
272,035
265,722
258,797
251,257
242,872
233,516
223,07
211,571
199,262
186,304
172,81
158,947
144,891
130,829
116,944
103,353
90,144
77,41
65,252
53,792
43,128
33,308
24,361
16,275
9,011
2,514
-3,309
-8,567
-13,339
-17,695
-21,681
-25,315
-28,625
-31,638
-34,376
-36,874
-39,156
-41,223
-43,076
-44,707
-46,092
-47,193
-47,946
-48,267
-48,095
-47,387
-46,112
-44,253
-41,79
-38,696
-34,957
-30,566
-25,516
-19,806
-13,434
-6,381
1,365
9,802
18,902
28,607
38,859
49,612
60,823
72,45
84,421
96,629
108,968
121,334
133,607
145,699
157,474
168,685
179,199
189,016
198,254
207,28
216,434
225,845
235,78
246,63
258,361
270,668
282,804
293,248
300,783
304,691
303,956
297,808
286,505
270,9
253,04
236,431
223,904
217,902
221,745
238,143
268,428
311,8
364,142
420,017
475,848
531,516
587,174
639,233
679,309
693,863
671,795
610,613
515,342
396,277
263,642
126,198
-7,471
-125,923
-217,723
-277,933
-307,967
-318,84
-322,133
-323,41
-327,983
-334,769
-344,51
-362,177
-385,192
-412,575
-442,121
-467,825
-490,851
-512,074
-530,574
-547,752
-562,309
-572,97
-580,63
-585,782
-589,139
-591,681
-593,789
-595,577
-597,217
-598,706
-599,876
-600,618
-600,849
-600,438
-599,282
-597,305
-594,391
-590,422
-585,304
-578,892
-571,036
-561,621
-550,563
-537,825
-523,417
-507,358
-489,679
-470,422
-449,652
-427,461
-403,966
-379,304
-353,625
-327,109
-299,964
-272,436
-244,791
-217,276
-190,109
-163,469
-137,514
-112,399
-88,276
-65,289
-43,556
-23,169
-4,199
13,3
29,29
43,767
56,77
68,376
78,689
87,814
95,843
102,849
108,914
114,125
118,574
122,366
125,597
128,354
130,736
132,842
134,755
136,537
138,218
139,796
141,272
142,646
143,921
145,118
146,255
147,35
148,437
149,533
150,644
151,768
152,877
153,92
154,869
155,704
156,424
157,058
157,625
158,143
158,637
159,123
159,603
160,062
160,463
160,765
160,954
161,025
161,007
160,949
160,895
160,893
160,983
161,185
161,515
161,984
162,588
163,322
164,198
165,245
166,512
168,064
169,951
172,208
174,854
177,9
181,337
185,132
189,253
193,658
198,302
203,153
208,172
213,331
218,584
223,87
229,117
234,232
239,116
243,665
247,77
251,297
254,132
256,183
257,356
257,594
256,852
255,074
252,223
248,265
243,168
236,911
229,48
220,861
211,062
200,116
188,089
175,098
161,267
146,719
131,592
115,999
100,043
83,845
67,516
51,159
34,892
18,838
3,133
-12,063
-26,597
-40,354
-53,25
-65,249
-76,34
-86,521
-95,809
-104,221
-111,778
-118,518
-124,474
-129,677
-134,175
-138,035
-141,344
-144,229
-146,813
-149,192
-151,441
-153,61
-155,729
-157,826
-159,912
-161,985
-164,04
-166,064
-168,051
-169,999
-171,898
-173,723
-175,435
-176,974
-178,285
-179,335
-180,098
-180,564
-180,73
-180,596
-180,174
-179,488
-178,568
-177,441
-176,13
-174,655
-173,039
-171,314
-169,514
-167,682
-165,852
-164,053
-162,307
-160,635
-159,053
-157,574
-156,208
-154,954
-153,814
-152,792
-151,889
-151,111
-150,461
-149,937
-149,537
-149,26
-149,104
-149,068
-149,149
-149,346
-149,655
-150,075
-150,602
-151,235
-151,97
-152,802
-153,725
-154,732
-155,815
-156,967
-158,178
-159,44
-160,742
-162,076
-163,432
-164,8
-166,171
-167,535
-168,882
-170,204
-171,491
-172,736
-173,93
-175,067
-176,138
-177,138
-178,061
-178,902
-179,655
-180,315
-180,88
-181,345
-181,708
-181,967
-182,12
-182,167
-182,107
-181,94
-181,669
-181,294
-180,818
-180,244
-179,576
-178,82
-177,98
-177,063
-176,076
-175,025
-173,918
-172,763
-171,568
-170,341
-169,089
-167,82
-166,541
-165,26
-163,984
-162,719
-161,471
-160,245
-159,048
-157,883
-156,757
-155,671
-154,631
-153,64
-152,699
-151,813
-150,982
-150,21
-149,496
-148,842
-148,248
-147,714
-147,237
-146,815
-146,444
-146,121
-145,839
-145,593
-145,378
-145,186
-145,012
-144,85
-144,695
-144,541
-144,383
-144,214
-144,029
-143,82
-143,583
-143,312
-143,002
-142,647
-142,24
-141,779
-141,262
-140,684
-140,043
-139,332
-138,542
-137,667
-136,709
-135,67
-134,554
-133,368
-132,12
-130,826
-129,51
-128,193
-126,894
-125,625
-124,392
-123,205
-122,079
-121,033
-120,085
-119,237
-118,481
-117,806
-117,196
-116,629
-116,073
-115,475
-114,765
-113,89
-112,809
-111,5
-109,949
-108,135
-106,027
-103,595
-100,819
-97,706
-94,283
-90,578
-86,624
-82,472
-78,192
-73,894
-69,704
-65,725
-62,031
-58,678
-55,711
-53,2
-51,242
-49,938
-49,364
-49,568
-50,576
-52,403
-55,057
-58,522
-62,749
-67,658
-73,168
-79,215
-85,78
-92,875
-100,447
-108,386
-116,393
-123,937
-130,466
-135,469
-138,404
-138,886
-136,758
-131,829
-124,719
-116,976
-109,892
-104,992
-102,755
-101,547
-101,321
-103,148
-108,396
-119,968
-134,114
-140,931
-130,569
-93,319
-30,58
47,025
130,815
214,263
297,959
384,267
466,474
529,651
558,033
543,529
489,053
408,918
317,062
218,807
119,637
24,044
-62,076
-125,797
-162,454
-177,402
-176,942
-171,6
-166,6
-158,648
-147,016
-132,05
-115,605
-102,335
-94,088
-90,272
-89,966
-91,71
-94,287
-96,835
-98,307
-97,991
-95,877
-92,366
-88,03
-83,383
-78,813
-74,718
-71,537
-69,529
-68,715
-68,96
-70,024
-71,685
-73,794
-76,179
-78,651
-81,053
-83,242
-85,107
-86,6
-87,681
-88,316
-88,495
-88,211
-87,472
-86,313
-84,778
-82,908
-80,75
-78,348
-75,74
-72,977
-70,109
-67,188
-64,267
-61,378
-58,544
-55,784
-53,11
-50,53
-48,047
-45,655
-43,341
-41,096
-38,912
-36,785
-34,708
-32,673
-30,668
-28,685
-26,716
-24,758
-22,807
-20,856
-18,9
-16,927
-14,933
-12,919
-10,884
-8,828
-6,754
-4,667
-2,579
-0,514
1,517
3,506
5,453
7,365
9,249
11,107
12,947
14,773
16,594
18,421
20,258
22,105
23,975
25,887
27,872
29,982
32,246
34,675
37,268
40,006
42,866
45,817
48,817
51,808
54,74
57,568
60,254
62,779
65,104
67,181
68,946
70,321
71,247
71,694
71,641
71,087
70,047
68,546
66,635
64,392
61,878
59,144
56,231
53,161
49,97
46,707
43,425
40,189
37,05
34,044
31,201
28,544
26,08
23,803
21,687
19,684
17,759
15,892
14,07
12,293
10,558
8,851
7,166
5,492
3,821
2,149
0,471
-1,22
-2,92
-4,621
-6,304
-7,941
-9,51
-11
-12,401
-13,712
-14,929
-16,051
-17,079
-18,019
-18,874
-19,647
-20,339
-20,95
-21,481
-21,936
-22,321
-22,644
-22,911
-23,126
-23,292
-23,414
-23,493
-23,53
-23,525
-23,476
-23,382
-23,24
-23,051
-22,816
-22,534
-22,204
-21,827
-21,402
-20,93
-20,411
-19,842
-19,224
-18,556
-17,835
-17,061
-16,233
-15,35
-14,411
-13,414
-12,359
-11,245
-10,071
-8,837
-7,543
-6,188
-4,773
-3,298
-1,765
-0,175
1,469
3,165
4,908
6,696
8,523
10,384
12,275
14,19
16,122
18,067
20,017
21,967
23,909
25,837
27,744
29,623
31,466
33,266
35,016
36,708
38,336
39,892
41,37
42,763
44,063
45,266
46,364
47,352
48,225
48,978
49,607
50,109
50,482
50,723
50,832
50,809
50,655
50,372
49,962
49,428
48,775
48,007
47,13
46,149
45,072
43,906
42,659
41,338
39,952
38,51
37,022
35,496
33,942
32,37
30,789
29,21
27,643
26,096
24,58
23,104
21,678
20,309
19,007
17,778
16,629
15,567
14,597
13,723
12,95
12,28
11,715
11,258
10,907
10,664
10,527
10,495
10,565
10,733
10,997
11,352
11,794
12,316
12,914
13,581
14,312
15,099
15,936
16,814
17,727
18,667
19,626
20,597
21,573
22,546
23,511
24,461
25,389
26,292
27,163
27,999
28,796
29,55
30,259
30,92
31,531
32,09
32,598
33,053
33,457
33,81
34,112
34,365
34,572
34,733
34,852
34,932
34,976
34,99
34,977
34,945
34,897
34,841
34,782
34,725
34,675
34,636
34,613
34,607
34,623
34,664
34,735
34,837
34,975
35,152
35,371
35,636
35,949
36,313
36,727
37,191
37,707
38,276
38,903
39,588
40,325
41,11
41,936
42,793
43,67
44,548
45,403
46,218
46,972
47,65
48,243
48,734
49,112
49,369
49,498
49,504
49,401
49,203
48,931
48,617
48,295
48,008
47,809
47,739
47,831
48,124
48,652
49,454
50,562
51,985
53,723
55,767
58,084
60,638
63,387
66,255
69,172
72,06
74,835
77,427
79,774
81,783
83,342
84,338
84,669
84,27
83,124
81,206
78,497
74,995
70,699
65,638
59,889
53,459
46,296
38,469
30,133
21,634
13,619
6,699
1,315
-1,971
-2,66
-0,725
3,653
9,682
15,733
20,389
22,498
20,807
14,712
4,748
-8,139
-21,801
-32,397
-36,361
-30,13
-9,552
26,733
76,688
138,651
209,445
287,064
374,959
471,895
569,886
657,226
714,903
726,98
690,659
609,581
493,83
361,25
225,717
102,298
9,46
-46,349
-65,255
-55,677
-36,622
-19,249
-8,086
-2,914
2,909
10,998
19,151
25,298
26,203
21,489
13,302
3,339
-6,419
-14,237
-19,559
-22,131
-21,97
-19,634
-15,743
-10,847
-5,629
-0,717
3,586
7,144
9,959
12,189
13,947
15,3
16,354
17,187
17,84
18,333
18,656
18,79
18,735
18,524
18,2
17,797
17,326
16,795
16,204
15,557
14,866
14,145
13,415
12,712
12,084
11,574
11,219
11,051
11,101
11,391
11,929
12,719
13,764
15,069
16,634
18,462
20,543
22,862
25,394
28,105
30,945
33,875
36,859
39,866
42,867
45,837
48,757
51,618
54,417
57,15
59,814
62,405
64,924
67,374
69,763
72,104
74,412
76,699
78,972
81,237
83,497
85,751
88
90,235
92,447
94,624
96,76
98,843
100,867
102,821
104,694
106,474
108,148
109,707
111,14
112,437
113,589
114,589
115,429
116,103
116,608
116,938
117,09
117,06
116,844
116,439
115,843
115,056
114,075
112,901
111,534
109,977
108,232
106,302
104,194
101,91
99,458
96,845
94,079
91,169
88,122
84,951
81,665
78,275
74,794
71,233
67,606
63,924
60,201
56,449
52,683
48,914
45,154
41,416
37,71
34,048
30,44
26,895
23,424
20,033
16,731
13,526
10,423
7,43
4,551
1,791
-0,847
-3,36
-5,745
-8,001
-10,128
-12,125
-13,992
-15,731
-17,344
-18,833
-20,201
-21,451
-22,588
-23,616
-24,541
-25,367
-26,101
-26,749
-27,316
-27,809
-28,234
-28,596
-28,902
-29,157
-29,366
-29,535
-29,669
-29,772
-29,85
-29,907
-29,948
-29,977
-29,999
-30,018
-30,036
-30,057
-30,085
-30,12
-30,167
-30,226
-30,301
-30,392
-30,502
-30,633
-30,784
-30,959
-31,157
-31,379
-31,623
-31,891
-32,181
-32,493
-32,824
-33,172
-33,537
-33,917
-34,311
-34,719
-35,138
-35,567
-36,005
-36,45
-36,901
-37,355
-37,807
-38,253
-38,69
-39,115
-39,527
-39,925
-40,306
-40,669
-41,014
-41,342
-41,653
-41,945
-42,208
-42,437
-42,625
-42,776
-42,897
-42,991
-43,063
-43,117
-43,163
-43,214
-43,279
-43,356
-43,439
-43,516
-43,581
-43,636
-43,695
-43,769
-43,868
-43,983
-44,103
-44,221
-44,33
-44,415
-44,451
-44,402
-44,237
-43,955
-43,577
-43,129
-42,631
-42,091
-41,508
-40,884
-40,233
-39,579
-38,962
-38,413
-37,963
-37,657
-37,551
-37,722
-38,243
-39,146
-40,426
-42,072
-44,07
-46,41
-49,094
-52,107
-55,418
-58,979
-62,726
-66,586
-70,496
-74,38
-78,145
-81,682
-84,863
-87,59
-89,808
-91,468
-92,536
-92,979
-92,749
-91,819
-90,198
-87,909
-85,002
-81,547
-77,596
-73,206
-68,459
-63,465
-58,364
-53,299
-48,387
-43,733
-39,432
-35,581
-32,293
-29,661
-27,737
-26,543
-26,087
-26,358
-27,361
-29,112
-31,588
-34,723
-38,423
-42,565
-47,024
-51,692
-56,451
-61,167
-65,706
-69,947
-73,807
-77,237
-80,19
-82,622
-84,473
-85,673
-86,186
-86,02
-85,203
-83,787
-81,845
-79,442
-76,661
-73,616
-70,404
-67,107
-63,785
-60,471
-57,2
-54,02
-50,988
-48,165
-45,598
-43,303
-41,293
-39,567
-38,111
-36,905
-35,917
-35,09
-34,383
-33,772
-33,242
-32,797
-32,435
-32,144
-31,907
-31,708
-31,538
-31,396
-31,293
-31,234
-31,229
-31,293
-31,447
-31,717
-32,121
-32,659
-33,315
-34,068
-34,896
-35,783
-36,723
-37,698
-38,678
-39,626
-40,491
-41,225
-41,79
-42,151
-42,28
-42,162
-41,796
-41,198
-40,404
-39,459
-38,416
-37,345
-36,308
-35,381
-34,648
-34,226
-34,319
-35,079
-36,516
-38,499
-40,693
-42,709
-44,262
-45,028
-44,51
-42,399
-38,803
-34,309
-30,201
-27,897
-28,352
-32,329
-40,615
-53,491
-70,323
-89,351
-107,409
-120,879
-126,598
-121,631
-103,024
-68,126
-16,993
47,145
120,04
196,466
275,396
360,416
449,487
535,84
606,48
641,906
632,38
579,145
489,961
379,633
261,162
142,726
34,517
-52,097
-111,509
-140,057
-141,262
-127,038
-102,401
-73,864
-48,569
-27,427
-17,654
-21,097
-30,976
-43,679
-52,467
-54,317
-53,922
-53,215
-53,295
-54,477
-54,086
-51,176
-46,484
-40,61
-34,538
-28,994
-24,183
-20,258
-17,368
-15,469
-14,372
-13,943
-14,067
-14,623
-15,52
-16,659
-17,923
-19,221
-20,485
-21,627
-22,55
-23,186
-23,489
-23,443
-23,055
-22,338
-21,31
-20,001
-18,451
-16,7
-14,787
-12,751
-10,63
-8,468
-6,311
-4,206
-2,195
-0,308
1,436
3,031
4,474
5,771
6,931
7,965
8,891
9,721
10,467
11,137
11,74
12,288
12,793
13,27
13,732
14,193
14,664
15,157
15,68
16,242
16,85
17,508
18,216
18,98
19,805
20,7
21,674
22,733
23,881
25,118
26,444
27,851
29,327
30,853
32,406
33,969
35,532
37,087
38,636
40,18
41,718
43,253
44,78
46,292
47,789
49,264
50,713
52,145
53,573
55,028
56,546
58,145
59,831
61,599
63,422
65,269
67,103
68,869
70,525
72,039
73,374
74,513
75,435
76,104
76,482
76,514
76,134
75,301
73,994
72,198
69,934
67,231
64,136
60,724
57,061
53,194
49,174
45,03
40,791
36,5
32,2
27,94
23,787
19,788
15,982
12,402
9,058
5,949
3,058
0,346
-2,224
-4,672
-7,013
-9,253
-11,39
-13,431
-15,382
-17,244
-19,033
-20,758
-22,428
-24,056
-25,642
-27,182
-28,666
-30,073
-31,383
-32,586
-33,675
-34,648
-35,507
-36,253
-36,891
-37,431
-37,876
-38,231
-38,499
-38,68
-38,776
-38,791
-38,73
-38,601
-38,411
-38,165
-37,87
-37,529
-37,147
-36,726
-36,268
-35,774
-35,244
-34,681
-34,085
-33,46
-32,81
-32,136
-31,443
-30,734
-30,011
-29,279
-28,54
-27,796
-27,05
-26,304
-25,561
-24,823
-24,093
-23,374
-22,669
-21,98
-21,31
-20,662
-20,038
-19,441
-18,872
-18,334
-17,828
-17,357
-16,922
-16,524
-16,166
-15,847
-15,57
-15,334
-15,139
-14,984
-14,87
-14,794
-14,756
-14,753
-14,786
-14,85
-14,946
-15,071
-15,223
-15,399
-15,597
-15,815
-16,051
-16,301
-16,564
-16,838
-17,12
-17,411
-17,709
-18,013
-18,322
-18,635
-18,952
-19,271
-19,591
-19,911
-20,23
-20,546
-20,861
-21,175
-21,489
-21,805
-22,126
-22,454
-22,789
-23,133
-23,487
-23,849
-24,218
-24,593
-24,972
-25,356
-25,745
-26,14
-26,542
-26,953
-27,376
-27,809
-28,25
-28,692
-29,131
-29,561
-29,984
-30,402
-30,822
-31,253
-31,706
-32,194
-32,728
-33,312
-33,943
-34,609
-35,296
-35,988
-36,677
-37,363
-38,044
-38,713
-39,36
-39,974
-40,536
-41,026
-41,41
-41,645
-41,694
-41,533
-41,157
-40,585
-39,843
-38,96
-37,967
-36,883
-35,739
-34,573
-33,414
-32,289
-31,224
-30,246
-29,402
-28,759
-28,373
-28,284
-28,509
-29,036
-29,845
-30,912
-32,199
-33,658
-35,23
-36,844
-38,446
-40,006
-41,494
-42,895
-44,174
-45,28
-46,171
-46,819
-47,199
-47,307
-47,135
-46,676
-45,952
-45,003
-43,881
-42,649
-41,349
-39,991
-38,581
-37,101
-35,533
-33,86
-32,063
-30,129
-28,062
-25,874
-23,587
-21,232
-18,813
-16,326
-13,768
-11,129
-8,416
-5,656
-2,884
-0,161
2,426
4,784
6,827
8,486
9,727
10,532
10,902
10,844
10,357
9,447
8,136
6,429
4,345
1,903
-0,886
-3,99
-7,361
-10,946
-14,7
-18,579
-22,55
-26,599
-30,736
-34,98
-39,354
-43,899
-48,615
-53,537
-58,774
-64,285
-69,912
-75,365
-80,101
-83,621
-85,602
-85,581
-83,088
-78,128
-70,907
-62,196
-53,573
-46,333
-41,468
-40,157
-43,044
-49,75
-59,474
-70,206
-78,335
-80,534
-73,619
-53,776
-19,345
28,294
87,8
156,301
231,497
315,863
408,66
503,045
588,354
647,264
664,14
634,625
560,782
450,296
316,784
171,92
29,573
-91,119
-175,914
-218,217
-221,098
-200,472
-174,227
-152,477
-138,759
-129,451
-118,554
-105,602
-92,747
-82,573
-77,849
-78,274
-81,718
-86,368
-90,322
-92,138
-91,438
-88,275
-82,951
-76,174
-68,674
-61,051
-53,933
-47,866
-43,086
-39,633
-37,454
-36,38
-36,266
-37,002
-38,436
-40,402
-42,771
-45,422
-48,229
-51,078
-53,843
-56,392
-58,636
-60,525
-62,026
-63,131
-63,828
-64,09
-63,908
-63,289
-62,241
-60,788
-58,949
-56,742
-54,213
-51,433
-48,477
-45,433
-42,364
-39,306
-36,293
-33,347
-30,491
-27,755
-25,154
-22,691
-20,382
-18,249
-16,331
-14,683
-13,334
-12,275
-11,491
-10,942
-10,588
-10,396
-10,318
-10,294
-10,275
-10,215
-10,085
-9,872
-9,545
-9,056
-8,345
-7,327
-5,947
-4,179
-2,007
0,564
3,511
6,803
10,378
14,15
18,05
22,021
26,02
30,023
33,99
37,869
41,601
45,118
48,363
51,3
53,894
56,12
57,973
59,459
60,608
61,475
62,099
62,503
62,704
62,707
62,519
62,156
61,632
60,96
60,152
59,218
58,168
57,016
55,763
54,405
52,931
51,318
49,55
47,624
45,539
43,299
40,911
38,382
35,72
32,943
30,061
27,086
24,028
20,894
17,695
14,443
11,153
7,839
4,517
1,197
-2,109
-5,391
-8,638
-11,842
-14,997
-18,097
-21,137
-24,11
-27,009
-29,828
-32,561
-35,203
-37,749
-40,193
-42,533
-44,766
-46,889
-48,901
-50,802
-52,59
-54,266
-55,83
-57,283
-58,625
-59,858
-60,983
-62,002
-62,915
-63,726
-64,436
-65,047
-65,56
-65,978
-66,303
-66,539
-66,686
-66,748
-66,728
-66,629
-66,453
-66,203
-65,884
-65,498
-65,048
-64,538
-63,971
-63,351
-62,681
-61,964
-61,204
-60,403
-59,566
-58,695
-57,794
-56,867
-55,916
-54,946
-53,96
-52,964
-51,96
-50,953
-49,949
-48,95
-47,963
-46,991
-46,039
-45,111
-44,211
-43,343
-42,511
-41,719
-40,97
-40,267
-39,613
-39,01
-38,461
-37,968
-37,532
-37,154
-36,834
-36,574
-36,373
-36,231
-36,147
-36,119
-36,147
-36,228
-36,36
-36,539
-36,763
-37,028
-37,328
-37,661
-38,021
-38,404
-38,803
-39,214
-39,632
-40,051
-40,467
-40,873
-41,265
-41,638
-41,988
-42,31
-42,602
-42,858
-43,078
-43,258
-43,396
-43,492
-43,544
-43,552
-43,517
-43,438
-43,318
-43,158
-42,96
-42,726
-42,46
-42,165
-41,843
-41,5
-41,14
-40,765
-40,382
-39,993
-39,604
-39,22
-38,843
-38,48
-38,133
-37,806
-37,504
-37,228
-36,982
-36,767
-36,584
-36,434
-36,317
-36,233
-36,18
-36,155
-36,157
-36,181
-36,225
-36,283
-36,35
-36,421
-36,489
-36,548
-36,593
-36,616
-36,61
-36,57
-36,489
-36,361
-36,18
-35,942
-35,64
-35,27
-34,827
-34,307
-33,707
-33,024
-32,255
-31,399
-30,458
-29,432
-28,325
-27,14
-25,88
-24,553
-23,163
-21,717
-20,22
-18,677
-17,096
-15,482
-13,847
-12,2
-10,551
-8,908
-7,282
-5,681
-4,114
-2,589
-1,108
0,326
1,708
3,027
4,271
5,424
6,477
7,421
8,248
8,958
9,552
10,039
10,44
10,777
11,071
11,341
11,599
11,86
12,152
12,505
12,956
13,544
14,293
15,231
16,376
17,717
19,231
20,876
22,585
24,303
25,969
27,492
28,796
29,802
30,404
30,54
30,109
28,931
26,976
24,311
21,082
17,654
14,366
11,399
9,148
8,139
8,483
10,077
12,523
14,804
16,233
16,55
15,094
11,182
4,958
-2,897
-10,987
-16,86
-18,398
-13,925
-1,029
23,038
58,916
104,731
157,977
214,99
274,718
341,539
416,796
495,822
569,987
622,535
636,637
607,199
534,113
424,045
295,008
161,921
41,475
-46,008
-94,706
-106,094
-89,549
-65,239
-44,402
-30,769
-23,382
-14,777
-2,797
10,36
22,37
29,67
31,559
29,884
26,148
22,135
19,374
18,309
19,092
21,627
25,389
29,833
34,513
38,907
42,491
45,024
46,444
46,812
46,353
45,267
43,699
41,829
39,848
37,901
36,117
34,604
33,402
32,548
32,084
32,019
32,363
33,112
34,24
35,71
37,488
39,539
41,824
44,312
46,958
49,714
52,531
55,359
58,16
60,911
63,592
66,19
68,697
71,109
73,432
75,676
77,849
79,956
82
83,982
85,907
87,783
89,618
91,417
93,188
94,934
96,659
98,369
100,065
101,75
103,423
105,085
106,736
108,379
110,016
111,651
113,287
114,925
116,568
118,219
119,88
121,55
123,23
124,918
126,613
128,314
130,019
131,725
133,429
135,128
136,819
138,497
140,157
141,796
143,406
144,981
146,516
148,003
149,436
150,807
152,11
153,336
154,48
155,534
156,491
157,345
158,089
158,717
159,222
159,599
159,842
159,947
159,91
159,727
159,396
158,916
158,285
157,502
156,569
155,486
154,254
152,877
151,355
149,694
147,896
145,967
143,913
141,738
139,451
137,057
134,564
131,98
129,312
126,57
123,762
120,896
117,982
115,029
112,047
109,045
106,032
103,019
100,014
97,026
94,065
91,138
88,254
85,42
82,644
79,931
77,29
74,725
72,242
69,846
67,541
65,332
63,221
61,211
59,306
57,505
55,812
54,226
52,749
51,38
50,118
48,964
47,915
46,97
46,127
45,383
44,734
44,178
43,71
43,327
43,024
42,797
42,642
42,554
42,528
42,561
42,647
42,782
42,961
43,181
43,437
43,725
44,042
44,385
44,748
45,131
45,529
45,939
46,359
46,787
47,219
47,653
48,088
48,52
48,949
49,372
49,789
50,198
50,598
50,99
51,372
51,745
52,109
52,463
52,808
53,144
53,471
53,79
54,102
54,405
54,701
54,99
55,27
55,542
55,805
56,058
56,299
56,527
56,741
56,938
57,117
57,276
57,413
57,527
57,614
57,674
57,705
57,703
57,668
57,596
57,486
57,336
57,142
56,904
56,618
56,284
55,898
55,46
54,968
54,42
53,817
53,156
52,437
51,66
50,827
49,938
48,996
48,002
46,96
45,874
44,749
43,588
42,399
41,184
39,952
38,706
37,454
36,203
34,957
33,724
32,51
31,32
30,163
29,042
27,963
26,932
25,953
25,032
24,171
23,374
22,642
21,976
21,379
20,848
20,385
19,987
19,652
19,379
19,167
19,013
18,915
18,867
18,864
18,899
18,962
19,048
19,147
19,251
19,352
19,449
19,536
19,61
19,665
19,684
19,655
19,563
19,395
19,14
18,79
18,341
17,801
17,187
16,515
15,803
15,062
14,295
13,506
12,701
11,898
11,121
10,396
9,745
9,188
8,752
8,439
8,227
8,067
7,878
7,583
7,141
6,502
5,611
4,416
2,843
0,804
-1,749
-4,926
-8,9
-13,713
-19,324
-25,529
-31,822
-37,699
-42,747
-46,398
-48,106
-47,797
-45,67
-42,507
-39,866
-39,065
-41,145
-47,305
-58,255
-73,583
-92,259
-112,028
-128,989
-139,495
-140,124
-126,783
-97,874
-54,948
0,737
66,141
140,545
227,853
325,554
425,722
512,553
563,538
568,277
526,668
449,74
355,857
251,217
139,764
25,363
-86,901
-178,425
-235,822
-256,484
-246,215
-223,404
-201,573
-185,409
-174,801
-164,306
-152,262
-140,723
-131,728
-127,78
-128,895
-133,205
-139,151
-144,871
-148,886
-150,744
-150,345
-147,997
-144,408
-140,209
-135,922
-132,107
-129,238
-127,527
-127,018
-127,606
-129,054
-131,167
-133,786
-136,74
-139,872
-143,055
-146,175
-149,134
-151,859
-154,287
-156,369
-158,078
-159,406
-160,352
-160,935
-161,186
-161,14
-160,838
-160,32
-159,62
-158,773
-157,825
-156,823
-155,814
-154,846
-153,952
-153,153
-152,464
-151,895
-151,446
-151,115
-150,891
-150,759
-150,711
-150,739
-150,836
-150,998
-151,215
-151,479
-151,78
-152,11
-152,46
-152,826
-153,201
-153,58
-153,959
-154,337
-154,712
-155,083
-155,448
-155,803
-156,146
-156,473
-156,78
-157,066
-157,328
-157,563
-157,769
-157,948
-158,097
-158,22
-158,316
-158,389
-158,439
-158,471
-158,487
-158,491
-158,487
-158,479
-158,472
-158,47
-158,479
-158,504
-158,549
-158,622
-158,727
-158,87
-159,057
-159,292
-159,582
-159,931
-160,344
-160,824
-161,376
-162,002
-162,707
-163,492
-164,359
-165,309
-166,345
-167,464
-168,667
-169,95
-171,313
-172,752
-174,262
-175,838
-177,477
-179,172
-180,918
-182,707
-184,534
-186,391
-188,271
-190,166
-192,069
-193,971
-195,863
-197,739
-199,588
-201,403
-203,175
-204,897
-206,56
-208,156
-209,679
-211,121
-212,475
-213,734
-214,893
-215,945
-216,886
-217,71
-218,415
-218,996
-219,451
-219,779
-219,977
-220,046
-219,986
-219,796
-219,478
-219,032
-218,46
-217,765
-216,948
-216,012
-214,96
-213,794
-212,519
-211,137
-209,654
-208,072
-206,396
-204,629
-202,777
-200,843
-198,832
-196,748
-194,596
-192,38
-190,105
-187,776
-185,396
-182,972
-180,505
-178,002
-175,465
-172,898
-170,304
-167,687
-165,049
-162,393
-159,723
-157,041
-154,349
-151,651
-148,95
-146,247
-143,547
-140,851
-138,164
-135,486
-132,823
-130,175
-127,547
-124,942
-122,362
-119,811
-117,291
-114,804
-112,355
-109,944
-107,574
-105,247
-102,964
-100,727
-98,537
-96,395
-94,303
-92,261
-90,269
-88,328
-86,439
-84,601
-82,816
-81,082
-79,4
-77,769
-76,189
-74,659
-73,178
-71,746
-70,36
-69,02
-67,724
-66,47
-65,256
-64,079
-62,938
-61,83
-60,751
-59,701
-58,676
-57,674
-56,692
-55,729
-54,783
-53,854
-52,939
-52,036
-51,147
-50,269
-49,402
-48,547
-47,702
-46,868
-46,045
-45,232
-44,428
-43,633
-42,844
-42,061
-41,28
-40,5
-39,72
-38,938
-38,151
-37,36
-36,565
-35,764
-34,958
-34,145
-33,324
-32,492
-31,651
-30,796
-29,927
-29,04
-28,132
-27,201
-26,247
-25,269
-24,262
-23,222
-22,142
-21,017
-19,85
-18,642
-17,395
-16,116
-14,813
-13,501
-12,203
-10,937
-9,719
-8,56
-7,471
-6,462
-5,553
-4,754
-4,073
-3,508
-3,048
-2,676
-2,38
-2,129
-1,88
-1,582
-1,17
-0,593
0,183
1,2
2,5
4,128
6,127
8,523
11,318
14,503
18,056
21,943
26,127
30,533
35,056
39,586
44,006
48,214
52,127
55,63
58,579
60,832
62,255
62,752
62,284
60,802
58,252
54,615
49,877
44,074
37,332
29,716
21,24
12,027
2,262
-7,7
-17,232
-25,757
-32,814
-37,827
-40,292
-40,083
-37,235
-32,326
-26,62
-21,233
-17,23
-15,809
-17,588
-22,237
-29,043
-36,286
-40,915
-40,022
-30,323
-7,905
28,301
76,263
134,345
199,406
271,201
354,565
447,378
542,024
624,554
673,055
675,361
629,622
541,843
428,566
304,166
181,703
76,188
-3,272
-51,211
-69,229
-69,427
-62,65
-55,653
-50,658
-42,942
-30,153
-14,516
0,945
12,028
16,692
16,023
11,668
5,264
-1,459
-7,06
-10,747
-12,104
-11,204
-8,656
-5,07
-0,938
3,114
6,467
8,806
9,986
10,058
9,278
7,833
5,871
3,588
1,164
-1,239
-3,455
-5,352
-6,832
-7,788
-8,148
-7,87
-6,922
-5,31
-3,067
-0,257
3,011
6,626
10,499
14,544
18,687
22,843
26,883
30,68
34,126
37,127
39,63
41,597
42,985
43,773
43,989
43,701
43,031
42,11
41,023
39,84
38,621
37,428
36,357
35,499
34,917
34,664
34,78
35,301
36,285
37,781
39,787
42,257
45,104
48,224
51,553
55,046
58,66
62,357
66,082
69,789
73,454
77,067
80,602
84,031
87,306
90,368
93,199
95,808
98,224
100,492
102,637
104,666
106,592
108,425
110,17
111,83
113,389
114,823
116,121
117,279
118,305
119,214
120,009
120,678
121,207
121,574
121,763
121,767
121,572
121,168
120,549
119,714
118,672
117,435
116,015
114,416
112,644
110,703
108,597
106,338
103,934
101,397
98,739
95,972
93,11
90,17
87,164
84,105
81,005
77,871
74,715
71,545
68,372
65,203
62,049
58,916
55,814
52,75
49,731
46,765
43,857
41,01
38,23
35,519
32,881
30,316
27,828
25,417
23,083
20,829
18,653
16,555
14,535
12,592
10,724
8,929
7,204
5,549
3,959
2,433
0,969
-0,436
-1,785
-3,079
-4,32
-5,51
-6,651
-7,744
-8,792
-9,796
-10,757
-11,676
-12,556
-13,396
-14,199
-14,963
-15,691
-16,382
-17,038
-17,659
-18,245
-18,797
-19,316
-19,802
-20,255
-20,677
-21,066
-21,425
-21,753
-22,051
-22,319
-22,557
-22,767
-22,95
-23,105
-23,234
-23,338
-23,417
-23,473
-23,506
-23,518
-23,51
-23,482
-23,437
-23,375
-23,298
-23,207
-23,103
-22,988
-22,862
-22,726
-22,582
-22,43
-22,272
-22,109
-21,942
-21,772
-21,601
-21,429
-21,259
-21,091
-20,926
-20,766
-20,613
-20,467
-20,33
-20,203
-20,088
-19,986
-19,899
-19,827
-19,772
-19,735
-19,717
-19,718
-19,739
-19,781
-19,845
-19,932
-20,041
-20,174
-20,332
-20,515
-20,725
-20,961
-21,223
-21,512
-21,825
-22,164
-22,526
-22,911
-23,316
-23,741
-24,182
-24,639
-25,108
-25,587
-26,073
-26,563
-27,053
-27,54
-28,021
-28,493
-28,952
-29,395
-29,82
-30,223
-30,602
-30,954
-31,275
-31,562
-31,811
-32,018
-32,178
-32,286
-32,339
-32,332
-32,262
-32,126
-31,922
-31,646
-31,299
-30,881
-30,391
-29,827
-29,189
-28,477
-27,691
-26,832
-25,9
-24,895
-23,817
-22,669
-21,455
-20,177
-18,838
-17,438
-15,975
-14,451
-12,872
-11,247
-9,583
-7,891
-6,183
-4,478
-2,802
-1,178
0,375
1,842
3,213
4,478
5,619
6,628
7,497
8,23
8,842
9,348
9,757
10,096
10,398
10,709
11,089
11,588
12,245
13,102
14,198
15,572
17,267
19,304
21,682
24,393
27,412
30,711
34,27
38,036
41,934
45,881
49,781
53,54
57,065
60,24
62,933
65,026
66,431
67,077
66,909
65,867
63,897
60,951
57,024
52,113
46,162
39,224
31,473
23,218
15,015
7,454
0,993
-3,846
-6,465
-6,677
-4,671
-1,036
2,884
5,768
6,722
4,709
-1,129
-10,671
-22,906
-35,994
-46,783
-51,873
-48,335
-32,776
-1,893
44,734
104,739
175,302
251,911
333,057
421,546
514,433
604,676
680,266
722,876
722,521
678,1
595,063
487,696
369,111
251,555
148,78
69,588
19,259
-3,551
-9,292
-7,5
-4,317
-1,845
3,849
14,566
28,061
41,444
50,876
54,462
53,131
48,388
41,723
34,769
29,008
25,258
23,937
25,02
27,932
32,066
36,938
41,901
46,284
49,741
52,101
53,377
53,794
53,516
52,662
51,415
49,947
48,393
46,881
45,497
44,308
43,406
42,872
42,757
43,103
43,915
45,183
46,894
49,013
51,497
54,303
57,385
60,698
64,202
67,846
71,578
75,344
79,09
82,773
86,365
89,84
93,183
96,388
99,451
102,378
105,178
107,858
110,421
112,873
115,215
117,454
119,6
121,66
123,643
125,557
127,409
129,206
130,956
132,663
134,331
135,963
137,563
139,135
140,683
142,212
143,727
145,233
146,735
148,235
149,737
151,242
152,753
154,268
155,787
157,308
158,828
160,346
161,857
163,357
164,84
166,303
167,737
169,137
170,495
171,803
173,053
174,237
175,346
176,371
177,305
178,138
178,863
179,471
179,956
180,31
180,526
180,599
180,523
180,292
179,903
179,351
178,634
177,749
176,696
175,473
174,081
172,522
170,797
168,91
166,862
164,659
162,305
159,805
157,165
154,392
151,492
148,472
145,341
142,106
138,776
135,359
131,863
128,298
124,671
120,992
117,269
113,51
109,725
105,92
102,106
98,288
94,477
90,678
86,9
83,15
79,433
75,757
72,126
68,547
65,025
61,563
58,167
54,839
51,583
48,402
45,299
42,274
39,33
36,468
33,689
30,995
28,385
25,86
23,419
21,063
18,792
16,605
14,501
12,479
10,538
8,678
6,896
5,19
3,56
2,003
0,517
-0,9
-2,25
-3,535
-4,757
-5,918
-7,02
-8,063
-9,05
-9,982
-10,859
-11,683
-12,454
-13,172
-13,839
-14,456
-15,022
-15,539
-16,008
-16,429
-16,804
-17,134
-17,419
-17,663
-17,865
-18,029
-18,155
-18,245
-18,302
-18,328
-18,323
-18,291
-18,232
-18,15
-18,046
-17,922
-17,781
-17,626
-17,46
-17,286
-17,108
-16,93
-16,756
-16,59
-16,438
-16,302
-16,189
-16,102
-16,045
-16,023
-16,039
-16,097
-16,2
-16,35
-16,55
-16,801
-17,105
-17,462
-17,873
-18,338
-18,856
-19,427
-20,049
-20,723
-21,446
-22,217
-23,035
-23,897
-24,801
-25,745
-26,725
-27,738
-28,779
-29,845
-30,931
-32,033
-33,145
-34,263
-35,381
-36,496
-37,602
-38,695
-39,771
-40,827
-41,858
-42,864
-43,842
-44,791
-45,711
-46,602
-47,466
-48,304
-49,117
-49,909
-50,682
-51,439
-52,182
-52,914
-53,64
-54,362
-55,083
-55,808
-56,539
-57,281
-58,038
-58,812
-59,608
-60,429
-61,279
-62,16
-63,075
-64,028
-65,02
-66,054
-67,129
-68,248
-69,409
-70,611
-71,851
-73,127
-74,433
-75,764
-77,114
-78,476
-79,843
-81,206
-82,557
-83,887
-85,187
-86,449
-87,664
-88,824
-89,92
-90,945
-91,892
-92,755
-93,527
-94,205
-94,783
-95,258
-95,629
-95,892
-96,048
-96,096
-96,036
-95,87
-95,598
-95,224
-94,752
-94,187
-93,532
-92,797
-91,988
-91,118
-90,197
-89,238
-88,251
-87,247
-86,237
-85,23
-84,24
-83,281
-82,365
-81,501
-80,703
-79,984
-79,355
-78,825
-78,394
-78,052
-77,788
-77,593
-77,458
-77,379
-77,35
-77,361
-77,404
-77,465
-77,535
-77,607
-77,67
-77,706
-77,709
-77,671
-77,614
-77,601
-77,687
-77,934
-78,392
-79,069
-79,999
-81,231
-82,807
-84,789
-87,227
-90,126
-93,555
-97,658
-102,465
-107,91
-113,742
-119,415
-124,406
-128,321
-130,673
-130,982
-129,074
-125,065
-119,638
-114,238
-110,301
-108,966
-111,363
-118,26
-129,584
-144,599
-161,51
-176,898
-186,966
-188,217
-176,693
-150,129
-109,384
-55,726
8,391
81,023
164,885
260,806
363,024
460,318
533,513
563,529
543,384
475,223
368,82
240,477
103,733
-28,4
-139,223
-217,295
-259,253
-267,555
-254,696
-233,809
-208,482
-182,649
-159,09
-138,813
-129,821
-133,921
-145,14
-159,453
-169,41
-172,078
-171,926
-170,576
-169,589
-169,657
-168,288
-164,883
-160,234
-154,8
-149,616
-145,471
-142,356
-140,274
-139,275
-139,137
-139,658
-140,726
-142,164
-143,827
-145,644
-147,505
-149,294
-150,928
-152,309
-153,356
-154,017
-154,252
-154,045
-153,405
-152,346
-150,903
-149,117
-147,026
-144,672
-142,093
-139,325
-136,416
-133,415
-130,372
-127,339
-124,353
-121,438
-118,613
-115,889
-113,264
-110,737
-108,295
-105,925
-103,615
-101,357
-99,142
-96,964
-94,811
-92,673
-90,537
-88,394
-86,233
-84,046
-81,826
-79,565
-77,259
-74,905
-72,5
-70,043
-67,531
-64,962
-62,333
-59,642
-56,889
-54,073
-51,195
-48,256
-45,261
-42,212
-39,116
-35,98
-32,812
-29,62
-26,414
-23,205
-20,004
-16,823
-13,675
-10,573
-7,53
-4,561
-1,679
1,101
3,767
6,304
8,699
10,94
13,014
14,909
16,614
18,12
19,418
20,5
21,358
21,988
22,386
22,548
22,473
22,161
21,613
20,834
19,826
18,596
17,152
15,502
13,655
11,623
9,418
7,053
4,541
1,897
-0,865
-3,728
-6,678
-9,699
-12,774
-15,889
-19,026
-22,172
-25,31
-28,426
-31,506
-34,536
-37,504
-40,398
-43,206
-45,919
-48,529
-51,027
-53,407
-55,664
-57,793
-59,792
-61,659
-63,392
-64,994
-66,465
-67,808
-69,026
-70,124
-71,108
-71,981
-72,752
-73,425
-74,009
-74,509
-74,933
-75,288
-75,582
-75,821
-76,012
-76,162
-76,277
-76,364
-76,427
-76,473
-76,505
-76,527
-76,543
-76,555
-76,564
-76,572
-76,578
-76,582
-76,583
-76,578
-76,564
-76,539
-76,497
-76,434
-76,346
-76,226
-76,07
-75,872
-75,627
-75,328
-74,972
-74,554
-74,068
-73,51
-72,878
-72,169
-71,378
-70,505
-69,547
-68,505
-67,376
-66,163
-64,865
-63,484
-62,023
-60,485
-58,873
-57,193
-55,449
-53,647
-51,794
-49,897
-47,964
-46,003
-44,022
-42,031
-40,037
-38,052
-36,082
-34,139
-32,229
-30,362
-28,544
-26,784
-25,089
-23,463
-21,913
-20,444
-19,058
-17,761
-16,555
-15,441
-14,422
-13,498
-12,67
-11,937
-11,298
-10,751
-10,294
-9,924
-9,637
-9,43
-9,297
-9,234
-9,235
-9,293
-9,403
-9,558
-9,751
-9,975
-10,223
-10,488
-10,763
-11,042
-11,32
-11,59
-11,848
-12,09
-12,312
-12,511
-12,683
-12,827
-12,94
-13,022
-13,071
-13,086
-13,067
-13,014
-12,928
-12,809
-12,658
-12,476
-12,266
-12,028
-11,764
-11,477
-11,17
-10,844
-10,504
-10,152
-9,791
-9,426
-9,06
-8,696
-8,338
-7,988
-7,649
-7,321
-7,008
-6,709
-6,423
-6,149
-5,887
-5,635
-5,392
-5,155
-4,922
-4,693
-4,467
-4,241
-4,014
-3,784
-3,547
-3,3
-3,039
-2,762
-2,465
-2,144
-1,795
-1,413
-0,997
-0,544
-0,049
0,493
1,095
1,763
2,496
3,293
4,15
5,058
6,01
6,989
7,971
8,933
9,857
10,729
11,548
12,302
12,978
13,562
14,031
14,381
14,623
14,773
14,85
14,882
14,905
14,973
15,17
15,559
16,19
17,095
18,289
19,798
21,666
23,926
26,606
29,711
33,21
37,072
41,267
45,733
50,399
55,155
59,84
64,331
68,534
72,367
75,767
78,627
80,81
82,194
82,69
82,244
80,841
78,439
74,99
70,485
64,93
58,415
51,06
42,865
33,892
24,314
14,405
4,712
-4,139
-11,683
-17,406
-20,709
-21,366
-19,481
-15,502
-10,673
-6,335
-3,489
-3,356
-6,994
-14,481
-25,043
-37,114
-47,743
-53,526
-51,435
-37,817
-8,963
35,766
94,216
164,011
240,608
322,579
413,166
508,781
601,613
679,003
721,528
719,116
671,937
585,642
472,473
344,509
212,082
89,421
-6,586
-65,416
-84,849
-74,071
-51,985
-31,775
-18,995
-12,515
-5,459
4,153
14,324
22,622
25,718
23,349
17,619
10,172
2,932
-2,502
-5,666
-6,382
-4,795
-1,577
2,587
7,145
11,474
15,011
17,501
18,847
19,091
18,444
17,077
15,129
12,77
10,16
7,423
4,669
1,989
-0,544
-2,835
-4,799
-6,388
-7,566
-8,328
-8,678
-8,628
-8,201
-7,43
-6,35
-4,995
-3,395
-1,582
0,406
2,527
4,733
6,978
9,228
11,459
13,653
15,803
17,905
19,962
21,981
23,976
25,954
27,924
29,889
31,852
33,821
35,803
37,803
39,827
41,877
43,954
46,057
48,188
50,344
52,523
54,721
56,933
59,158
61,394
63,636
65,878
68,109
70,319
72,505
74,665
76,8
78,916
81,017
83,105
85,188
87,27
89,346
91,408
93,433
95,397
97,286
99,091
100,811
102,448
103,988
105,415
106,714
107,857
108,82
109,574
110,075
110,294
110,222
109,863
109,251
108,43
107,428
106,264
104,952
103,498
101,923
100,252
98,504
96,709
94,9
93,114
91,412
89,841
88,413
87,123
85,934
84,785
83,638
82,466
81,245
79,962
78,596
77,126
75,537
73,817
71,948
69,906
67,647
65,137
62,372
59,371
56,185
52,881
49,505
46,087
42,654
39,221
35,807
32,427
29,082
25,762
22,459
19,177
15,938
12,761
9,645
6,561
3,448
0,246
-3,079
-6,543
-10,15
-13,906
-17,807
-21,834
-25,944
-30,065
-34,132
-38,101
-41,946
-45,638
-49,136
-52,366
-55,228
-57,636
-59,528
-60,85
-61,561
-61,616
-60,976
-59,645
-57,666
-55,117
-52,072
-48,575
-44,663
-40,387
-35,806
-31,005
-26,089
-21,143
-16,245
-11,5
-7,004
-2,871
0,793
3,929
6,517
8,557
10,05
10,977
11,324
11,101
10,327
9,027
7,229
4,939
2,181
-0,973
-4,437
-8,112
-11,892
-15,698
-19,472
-23,15
-26,666
-29,958
-32,971
-35,679
-38,07
-40,116
-41,777
-42,989
-43,705
-43,924
-43,669
-42,981
-41,909
-40,497
-38,792
-36,854
-34,755
-32,557
-30,305
-28,018
-25,698
-23,355
-21,031
-18,796
-16,719
-14,837
-13,155
-11,666
-10,362
-9,237
-8,286
-7,484
-6,795
-6,19
-5,665
-5,245
-4,981
-4,917
-5,059
-5,381
-5,853
-6,473
-7,273
-8,286
-9,534
-11,014
-12,723
-14,674
-16,887
-19,365
-22,08
-24,955
-27,897
-30,827
-33,699
-36,491
-39,173
-41,684
-43,925
-45,816
-47,302
-48,351
-48,939
-49,014
-48,532
-47,478
-45,877
-43,81
-41,361
-38,59
-35,538
-32,24
-28,752
-25,176
-21,64
-18,239
-15,05
-12,134
-9,557
-7,414
-5,789
-4,734
-4,263
-4,352
-4,987
-6,175
-7,93
-10,255
-13,116
-16,439
-20,126
-24,106
-28,323
-32,714
-37,205
-41,697
-46,1
-50,342
-54,383
-58,18
-61,67
-64,777
-67,424
-69,544
-71,114
-72,133
-72,622
-72,593
-72,049
-71,01
-69,506
-67,572
-65,236
-62,514
-59,4
-55,91
-52,093
-47,996
-43,685
-39,221
-34,64
-29,977
-25,257
-20,503
-15,736
-10,973
-6,223
-1,519
3,088
7,531
11,714
15,56
19,013
22,004
24,489
26,438
27,814
28,603
28,795
28,372
27,302
25,551
23,078
19,869
15,971
11,44
6,337
0,735
-5,308
-11,719
-18,344
-25,053
-31,884
-38,872
-46,085
-53,611
-61,256
-68,8
-76,327
-83,835
-90,971
-97,342
-102,193
-104,703
-104,882
-102,785
-98,02
-90,582
-80,987
-70,047
-59,62
-51,648
-46,78
-45,67
-49,115
-56,926
-68,149
-80,877
-91,488
-96,284
-92,455
-76,736
-46,491
-0,468
60,422
132,042
210,199
291,311
372,869
453,838
527,018
580,966
606,758
596,455
551,612
482,304
393,474
289,906
177,246
60,578
-44,584
-120,69
-160,343
-165,706
-150,716
-132,333
-119,49
-113,045
-108,444
-102,129
-94,306
-87,406
-84,58
-86,393
-91,213
-97,336
-102,722
-105,833
-106,251
-103,769
-98,515
-91,157
-82,376
-72,786
-63,1
-53,947
-45,644
-38,373
-32,194
-27,028
-22,869
-19,74
-17,587
-16,324
-15,864
-16,113
-16,991
-18,437
-20,359
-22,639
-25,194
-27,956
-30,891
-33,99
-37,21
-40,47
-43,649
-46,607
-49,227
-51,435
-53,192
-54,483
-55,31
-55,675
-55,599
-55,118
-54,246
-52,986
-51,321
-49,205
-46,628
-43,626
-40,27
-36,673
-32,949
-29,177
-25,415
-21,71
-18,092
-14,586
-11,204
-7,936
-4,783
-1,757
1,119
3,792
6,23
8,432
10,422
12,25
13,984
15,668
17,332
19,009
20,713
22,454
24,235
26,034
27,821
29,579
31,3
32,995
34,688
36,381
38,067
39,733
41,351
42,914
44,428
45,891
47,302
48,668
49,995
51,312
52,675
54,127
55,698
57,402
59,225
61,159
63,204
65,348
67,572
69,834
72,069
74,224
76,267
78,158
79,856
81,303
82,405
83,075
83,242
82,849
81,858
80,234
77,939
74,948
71,269
66,94
62,026
56,585
50,65
44,256
37,442
30,269
22,829
15,226
7,559
-0,069
-7,547
-14,769
-21,624
-28,002
-33,83
-39,064
-43,689
-47,687
-51,031
-53,682
-55,604
-56,782
-57,227
-56,979
-56,098
-54,659
-52,768
-50,538
-48,089
-45,555
-43,059
-40,689
-38,513
-36,589
-34,97
-33,731
-32,957
-32,706
-33,023
-33,922
-35,385
-37,379
-39,848
-42,715
-45,89
-49,261
-52,71
-56,152
-59,522
-62,767
-65,843
-68,694
-71,246
-73,449
-75,269
-76,685
-77,695
-78,303
-78,522
-78,388
-77,954
-77,282
-76,444
-75,491
-74,456
-73,372
-72,266
-71,164
-70,096
-69,078
-68,111
-67,198
-66,34
-65,537
-64,785
-64,073
-63,384
-62,707
-62,039
-61,374
-60,709
-60,037
-59,341
-58,619
-57,879
-57,134
-56,407
-55,721
-55,088
-54,533
-54,09
-53,772
-53,582
-53,502
-53,49
-53,521
-53,588
-53,689
-53,839
-54,04
-54,277
-54,536
-54,799
-55,033
-55,211
-55,285
-55,192
-54,906
-54,426
-53,77
-52,987
-52,11
-51,139
-50,074
-48,899
-47,591
-46,148
-44,567
-42,853
-41,033
-39,146
-37,247
-35,406
-33,659
-32,027
-30,52
-29,12
-27,826
-26,656
-25,634
-24,802
-24,224
-23,944
-24,001
-24,422
-25,204
-26,338
-27,802
-29,565
-31,603
-33,887
-36,387
-39,09
-41,979
-45,026
-48,197
-51,422
-54,607
-57,674
-60,55
-63,175
-65,5
-67,471
-69,028
-70,128
-70,749
-70,888
-70,557
-69,744
-68,436
-66,618
-64,28
-61,464
-58,229
-54,618
-50,677
-46,454
-42,017
-37,469
-32,934
-28,499
-24,225
-20,144
-16,271
-12,659
-9,372
-6,474
-4,03
-2,062
-0,592
0,337
0,686
0,447
-0,347
-1,596
-3,182
-5,027
-7,072
-9,285
-11,639
-14,064
-16,487
-18,835
-21,028
-23,002
-24,683
-25,957
-26,718
-26,899
-26,471
-25,477
-23,972
-21,987
-19,553
-16,691
-13,427
-9,824
-5,942
-1,839
2,403
6,703
10,966
15,051
18,81
22,096
24,773
26,754
27,975
28,388
27,952
26,608
24,317
21,051
16,79
11,572
5,405
-1,771
-9,874
-18,697
-27,873
-36,753
-44,728
-51,382
-56,167
-58,547
-58,449
-55,976
-51,811
-47,436
-44,056
-42,615
-44,23
-49,457
-57,838
-68,569
-79,669
-87,605
-89,202
-81,28
-60,044
-24,081
24,885
85,101
153,311
227,016
309,22
400,006
493,001
578,419
638,78
656,526
626,355
548,837
430,889
290,53
143,426
7,911
-93,045
-150,947
-165,987
-148,811
-122,372
-100,176
-87,245
-82,21
-76,163
-66,303
-54,725
-43,955
-38,087
-37,898
-41,281
-46,629
-52,005
-55,71
-57,287
-56,541
-53,529
-48,877
-43,249
-37,161
-31,229
-26,06
-21,933
-18,964
-17,133
-16,225
-16,06
-16,503
-17,376
-18,503
-19,752
-21,005
-22,169
-23,18
-23,956
-24,423
-24,538
-24,273
-23,624
-22,602
-21,227
-19,527
-17,537
-15,298
-12,847
-10,222
-7,46
-4,602
-1,695
1,218
4,092
6,897
9,612
12,225
14,731
17,132
19,435
21,653
23,801
25,892
27,937
29,946
31,927
33,893
35,856
37,828
39,819
41,84
43,898
46
48,15
50,352
52,607
54,915
57,274
59,686
62,152
64,672
67,248
69,878
72,561
75,297
78,083
80,913
83,781
86,678
89,594
92,519
95,445
98,361
101,255
104,116
106,931
109,692
112,385
114,998
117,513
119,909
122,171
124,289
126,258
128,074
129,736
131,237
132,578
133,763
134,79
135,655
136,342
136,826
137,092
137,131
136,944
136,54
135,921
135,076
133,996
132,668
131,08
129,227
127,089
124,634
121,854
118,757
115,372
111,758
107,957
103,995
99,894
95,664
91,326
86,915
82,458
77,981
73,514
69,088
64,749
60,569
56,587
52,815
49,24
45,815
42,511
39,318
36,226
33,23
30,322
27,487
24,72
22,028
19,407
16,848
14,324
11,788
9,219
6,617
4
1,41
-1,124
-3,587
-5,96
-8,225
-10,367
-12,372
-14,236
-15,971
-17,576
-19,048
-20,373
-21,527
-22,501
-23,296
-23,918
-24,386
-24,713
-24,909
-24,986
-24,96
-24,844
-24,649
-24,38
-24,034
-23,616
-23,132
-22,59
-22,004
-21,381
-20,728
-20,051
-19,355
-18,646
-17,93
-17,213
-16,498
-15,791
-15,097
-14,424
-13,781
-13,175
-12,611
-12,093
-11,622
-11,204
-10,84
-10,533
-10,285
-10,096
-9,966
-9,895
-9,887
-9,94
-10,051
-10,213
-10,416
-10,655
-10,931
-11,249
-11,61
-12,012
-12,456
-12,944
-13,482
-14,071
-14,702
-15,358
-16,019
-16,672
-17,315
-17,951
-18,587
-19,217
-19,827
-20,4
-20,927
-21,399
-21,802
-22,112
-22,3
-22,35
-22,276
-22,112
-21,895
-21,645
-21,372
-21,075
-20,758
-20,437
-20,133
-19,865
-19,641
-19,475
-19,39
-19,428
-19,638
-20,042
-20,63
-21,362
-22,198
-23,119
-24,114
-25,177
-26,293
-27,443
-28,606
-29,775
-30,947
-32,113
-33,25
-34,318
-35,271
-36,09
-36,78
-37,368
-37,876
-38,312
-38,68
-38,983
-39,232
-39,436
-39,597
-39,701
-39,735
-39,696
-39,588
-39,426
-39,224
-38,981
-38,686
-38,325
-37,888
-37,374
-36,782
-36,115
-35,373
-34,567
-33,72
-32,858
-32,006
-31,181
-30,393
-29,655
-28,98
-28,383
-27,871
-27,448
-27,105
-26,831
-26,613
-26,429
-26,242
-26,012
-25,682
-25,209
-24,561
-23,704
-22,601
-21,218
-19,518
-17,486
-15,126
-12,456
-9,501
-6,299
-2,888
0,663
4,258
7,805
11,211
14,392
17,283
19,787
21,772
23,118
23,721
23,508
22,464
20,575
17,821
14,226
9,802
4,572
-1,376
-8,022
-15,402
-23,454
-32,075
-41,001
-49,612
-57,251
-63,364
-67,34
-68,785
-67,656
-63,907
-58,185
-52,159
-47,588
-46,29
-48,839
-53,814
-59,759
-66,456
-76,069
-91,196
-110,69
-127,121
-127,638
-101,589
-44,951
37,461
135,149
241,707
350,673
455,169
545,255
601,468
612,536
578,345
506,99
419,077
327,326
233,46
141,008
51,295
-29,409
-87,273
-118,512
-128,278
-122,98
-113,373
-104,487
-93,594
-80,913
-67,356
-54,335
-45,625
-42,545
-44,111
-49,197
-56,259
-63,539
-69,643
-73,766
-75,429
-74,696
-72,148
-68,327
-63,712
-58,933
-54,569
-50,896
-48,053
-46,004
-44,544
-43,548
-42,925
-42,541
-42,287
-42,101
-41,942
-41,797
-41,653
-41,449
-41,123
-40,647
-40,033
-39,338
-38,61
-37,876
-37,166
-36,503
-35,912
-35,408
-34,974
-34,568
-34,157
-33,729
-33,286
-32,855
-32,445
-32,047
-31,632
-31,157
-30,583
-29,889
-29,046
-28,03
-26,829
-25,44
-23,887
-22,22
-20,473
-18,664
-16,803
-14,887
-12,919
-10,909
-8,868
-6,804
-4,729
-2,647
-0,566
1,501
3,552
5,592
7,634
9,703
11,815
13,98
16,2
18,475
20,801
23,178
25,596
28,044
30,512
32,987
35,462
37,928
40,374
42,785
45,146
47,439
49,647
51,755
53,748
55,613
57,337
58,91
60,322
61,567
62,64
63,532
64,237
64,749
65,059
65,164
65,059
64,74
64,202
63,447
62,473
61,285
59,889
58,29
56,496
54,512
52,348
50,011
47,514
44,866
42,076
39,156
36,119
32,984
29,772
26,5
23,181
19,824
16,433
13,015
9,579
6,129
2,666
-0,806
-4,275
-7,722
-11,117
-14,437
-17,67
-20,808
-23,857
-26,811
-29,654
-32,37
-34,94
-37,345
-39,573
-41,599
-43,385
-44,912
-46,183
-47,221
-48,077
-48,786
-49,368
-49,838
-50,2
-50,47
-50,676
-50,841
-50,985
-51,134
-51,311
-51,561
-51,949
-52,508
-53,247
-54,146
-55,153
-56,233
-57,369
-58,546
-59,751
-60,97
-62,18
-63,368
-64,534
-65,665
-66,745
-67,74
-68,595
-69,281
-69,793
-70,142
-70,366
-70,487
-70,515
-70,465
-70,349
-70,177
-69,962
-69,701
-69,382
-69,002
-68,563
-68,078
-67,57
-67,05
-66,519
-65,969
-65,387
-64,763
-64,093
-63,369
-62,584
-61,733
-60,816
-59,838
-58,814
-57,751
-56,657
-55,535
-54,386
-53,215
-52,029
-50,833
-49,636
-48,445
-47,265
-46,106
-44,976
-43,881
-42,828
-41,819
-40,858
-39,945
-39,084
-38,277
-37,525
-36,831
-36,195
-35,621
-35,109
-34,661
-34,277
-33,956
-33,698
-33,501
-33,362
-33,278
-33,245
-33,259
-33,317
-33,413
-33,544
-33,704
-33,89
-34,096
-34,319
-34,554
-34,797
-35,044
-35,291
-35,535
-35,773
-36,002
-36,219
-36,423
-36,611
-36,782
-36,935
-37,068
-37,181
-37,272
-37,341
-37,386
-37,407
-37,404
-37,377
-37,327
-37,253
-37,159
-37,044
-36,912
-36,763
-36,598
-36,42
-36,228
-36,023
-35,804
-35,571
-35,323
-35,058
-34,776
-34,475
-34,154
-33,811
-33,446
-33,056
-32,64
-32,195
-31,716
-31,203
-30,65
-30,057
-29,418
-28,731
-27,993
-27,201
-26,357
-25,459
-24,505
-23,492
-22,416
-21,274
-20,072
-18,814
-17,503
-16,15
-14,763
-13,359
-11,96
-10,583
-9,242
-7,951
-6,719
-5,563
-4,496
-3,528
-2,668
-1,917
-1,266
-0,705
-0,225
0,2
0,596
1
1,456
1,996
2,646
3,436
4,398
5,572
6,99
8,668
10,608
12,808
15,246
17,899
20,737
23,698
26,714
29,715
32,621
35,37
37,902
40,129
41,925
43,167
43,737
43,554
42,583
40,776
38,081
34,472
29,925
24,461
18,163
11,05
3,08
-5,67
-15,029
-24,644
-33,845
-42,014
-48,686
-53,25
-55,149
-54,249
-50,615
-44,923
-38,646
-33,053
-29,212
-28,376
-31,256
-37,536
-46,408
-55,844
-62,376
-62,766
-53,706
-31,223
6,633
58,441
122,064
193,833
270,987
356,792
452,971
554,52
651,58
724,921
752,913
726,562
644,458
514,45
359,013
197,699
51,56
-56,121
-120,127
-143,008
-135,888
-121,184
-109,8
-104,225
-102,885
-97,333
-85,522
-71,244
-57,861
-49,423
-47,105
-49,099
-53,664
-59,15
-64,011
-67,101
-67,819
-66,083
-62,189
-56,766
-50,449
-43,708
-37,101
-31,193
-26,249
-22,339
-19,389
-17,176
-15,537
-14,39
-13,619
-13,095
-12,744
-12,49
-12,288
-12,152
-12,051
-11,96
-11,876
-11,783
-11,68
-11,586
-11,514
-11,466
-11,447
-11,432
-11,384
-11,286
-11,124
-10,89
-10,581
-10,171
-9,646
-8,999
-8,219
-7,304
-6,251
-5,046
-3,677
-2,153
-0,485
1,298
3,153
5,055
6,985
8,923
10,858
12,77
14,641
16,47
18,258
20,011
21,731
23,417
25,07
26,701
28,323
29,955
31,618
33,326
35,088
36,913
38,804
40,765
42,798
44,897
47,052
49,254
51,493
53,763
56,055
58,358
60,658
62,942
65,196
67,409
69,569
71,663
73,679
75,608
77,439
79,164
80,774
82,26
83,613
84,825
85,886
86,789
87,527
88,092
88,48
88,684
88,7
88,527
88,162
87,604
86,854
85,914
84,786
83,473
81,981
80,315
78,482
76,489
74,344
72,057
69,636
67,09
64,43
61,666
58,809
55,868
52,855
49,779
46,653
43,486
40,289
37,071
33,843
30,615
27,395
24,193
21,017
17,875
14,775
11,723
8,727
5,792
2,923
0,124
-2,599
-5,245
-7,811
-10,294
-12,694
-15,009
-17,24
-19,386
-21,448
-23,426
-25,323
-27,139
-28,876
-30,537
-32,122
-33,634
-35,075
-36,446
-37,749
-38,985
-40,155
-41,262
-42,306
-43,288
-44,209
-45,071
-45,873
-46,618
-47,306
-47,937
-48,512
-49,032
-49,497
-49,908
-50,265
-50,569
-50,819
-51,016
-51,161
-51,253
-51,292
-51,279
-51,214
-51,098
-50,93
-50,712
-50,445
-50,13
-49,769
-49,363
-48,915
-48,428
-47,903
-47,344
-46,753
-46,135
-45,491
-44,826
-44,142
-43,442
-42,73
-42,008
-41,279
-40,546
-39,81
-39,075
-38,342
-37,614
-36,892
-36,179
-35,476
-34,787
-34,113
-33,454
-32,814
-32,192
-31,591
-31,011
-30,453
-29,917
-29,403
-28,913
-28,446
-28,002
-27,581
-27,183
-26,809
-26,457
-26,127
-25,821
-25,537
-25,275
-25,037
-24,824
-24,636
-24,475
-24,342
-24,239
-24,168
-24,129
-24,124
-24,152
-24,213
-24,308
-24,436
-24,599
-24,796
-25,027
-25,295
-25,6
-25,943
-26,325
-26,747
-27,206
-27,699
-28,225
-28,78
-29,36
-29,961
-30,576
-31,203
-31,84
-32,485
-33,134
-33,782
-34,419
-35,037
-35,633
-36,205
-36,751
-37,27
-37,759
-38,227
-38,688
-39,158
-39,65
-40,17
-40,711
-41,27
-41,846
-42,437
-43,041
-43,646
-44,225
-44,761
-45,241
-45,654
-45,987
-46,206
-46,255
-46,087
-45,662
-44,957
-43,966
-42,676
-41,076
-39,177
-36,995
-34,581
-32,004
-29,311
-26,539
-23,73
-20,929
-18,219
-15,711
-13,496
-11,658
-10,273
-9,398
-9,109
-9,468
-10,493
-12,181
-14,494
-17,373
-20,791
-24,723
-29,123
-33,934
-39,06
-44,376
-49,773
-55,137
-60,339
-65,255
-69,744
-73,682
-76,998
-79,637
-81,554
-82,716
-83,055
-82,514
-81,076
-78,734
-75,504
-71,435
-66,574
-60,999
-54,826
-48,171
-41,148
-33,862
-26,384
-18,792
-11,19
-3,692
3,56
10,435
16,825
22,627
27,731
32,045
35,504
38,074
39,761
40,554
40,397
39,227
36,978
33,615
29,166
23,678
17,19
9,748
1,395
-7,81
-17,742
-28,303
-39,498
-51,253
-63,4
-75,618
-87,278
-97,734
-106,511
-113,102
-116,971
-117,919
-116,028
-111,823
-106,622
-101,762
-98,2
-96,893
-98,565
-103,196
-110,101
-117,697
-122,939
-122,598
-114,036
-94,446
-61,288
-13,172
50,158
126,395
209,956
294,912
376,664
453,745
526,268
592,413
646,803
676,654
669,506
618,166
521,257
392,443
250,839
116,264
9,757
-61,542
-99,209
-111,017
-112,937
-113,319
-114,589
-116,503
-113,601
-105,294
-95,109
-85,828
-80,875
-81,275
-85,443
-91,868
-99,034
-105,209
-109,1
-110,07
-107,879
-102,827
-95,629
-86,94
-77,352
-67,583
-58,255
-49,69
-42,057
-35,316
-29,302
-23,936
-19,174
-14,976
-11,35
-8,317
-5,888
-4,068
-2,826
-2,094
-1,798
-1,863
-2,236
-2,907
-3,866
-5,122
-6,701
-8,597
-10,783
-13,186
-15,676
-18,107
-20,36
-22,35
-24,035
-25,399
-26,425
-27,106
-27,44
-27,408
-26,987
-26,139
-24,808
-22,956
-20,585
-17,738
-14,508
-11,022
-7,396
-3,721
-0,064
3,529
7,024
10,393
13,631
16,732
19,685
22,461
25,016
27,315
29,345
31,126
32,7
34,126
35,47
36,782
38,102
39,457
40,857
42,295
43,756
45,219
46,67
48,112
49,554
51
52,447
53,88
55,29
56,671
58,012
59,307
60,56
61,782
63,014
64,315
65,736
67,32
69,098
71,086
73,305
75,781
78,533
81,565
84,86
88,376
92,075
95,909
99,815
103,713
107,479
110,968
114,051
116,621
118,583
119,85
120,323
119,889
118,459
115,981
112,437
107,839
102,2
95,548
87,933
79,447
70,232
60,463
50,308
39,922
29,468
19,116
9,061
-0,47
-9,285
-17,228
-24,177
-30,042
-34,734
-38,175
-40,303
-41,11
-40,638
-38,964
-36,18
-32,388
-27,715
-22,314
-16,379
-10,142
-3,816
2,411
8,382
13,965
19,03
23,451
27,103
29,905
31,815
32,813
32,909
32,128
30,518
28,16
25,178
21,724
17,948
13,996
9,977
5,984
2,106
-1,572
-4,96
-7,991
-10,622
-12,822
-14,578
-15,885
-16,748
-17,192
-17,276
-17,071
-16,652
-16,097
-15,46
-14,779
-14,09
-13,423
-12,808
-12,269
-11,815
-11,45
-11,175
-10,994
-10,907
-10,908
-10,978
-11,092
-11,221
-11,336
-11,418
-11,455
-11,436
-11,354
-11,208
-10,996
-10,722
-10,395
-10,019
-9,597
-9,132
-8,626
-8,084
-7,515
-6,926
-6,327
-5,723
-5,121
-4,528
-3,949
-3,387
-2,845
-2,326
-1,829
-1,357
-0,912
-0,498
-0,117
0,226
0,529
0,789
1,002
1,166
1,278
1,337
1,343
1,294
1,192
1,037
0,829
0,571
0,264
-0,089
-0,486
-0,924
-1,399
-1,909
-2,448
-3,014
-3,601
-4,206
-4,825
-5,454
-6,089
-6,727
-7,364
-7,997
-8,624
-9,242
-9,848
-10,44
-11,016
-11,573
-12,111
-12,628
-13,123
-13,595
-14,044
-14,471
-14,876
-15,262
-15,63
-15,982
-16,321
-16,651
-16,974
-17,294
-17,614
-17,938
-18,267
-18,605
-18,954
-19,318
-19,697
-20,096
-20,515
-20,958
-21,426
-21,923
-22,447
-23
-23,579
-24,183
-24,807
-25,448
-26,1
-26,759
-27,417
-28,068
-28,709
-29,332
-29,932
-30,5
-31,024
-31,494
-31,906
-32,256
-32,54
-32,76
-32,917
-33,015
-33,068
-33,088
-33,083
-33,063
-33,024
-32,964
-32,882
-32,78
-32,661
-32,522
-32,346
-32,113
-31,807
-31,407
-30,895
-30,246
-29,413
-28,364
-27,076
-25,535
-23,747
-21,729
-19,494
-17,057
-14,444
-11,693
-8,867
-6,043
-3,283
-0,654
1,779
3,941
5,738
7,095
7,961
8,311
8,143
7,469
6,3
4,653
2,572
0,115
-2,629
-5,556
-8,576
-11,597
-14,527
-17,264
-19,705
-21,791
-23,507
-24,87
-25,908
-26,626
-27,044
-27,222
-27,24
-27,195
-27,192
-27,309
-27,681
-28,558
-30,091
-32,308
-35,079
-38,004
-40,661
-42,712
-43,685
-43,025
-40,512
-36,333
-31,175
-26,321
-23,198
-23,186
-27,692
-37,85
-52,73
-69,436
-84,88
-96,077
-103,765
-110,687
-115,858
-114,629
-96,169
-48,823
32,333
145,178
277,674
414,352
538,631
633,913
690,111
698,681
659,179
578,436
463,047
327,782
186,783
54,638
-49,172
-116,813
-147,982
-150,763
-143,603
-136,232
-131,07
-126,069
-113,381
-92,076
-66,612
-41,062
-20,534
-7,02
0,318
1,567
-2,776
-11,102
-21,807
-33,277
-43,771
-52,598
-59,571
-64,016
-65,647
-64,809
-62,035
-58,228
-54,489
-51,281
-48,789
-47,355
-47,052
-47,833
-49,629
-52,053
-54,608
-57,023
-59,128
-60,81
-62,083
-62,928
-63,306
-63,266
-62,877
-62,187
-61,243
-60,051
-58,598
-56,893
-54,96
-52,841
-50,588
-48,247
-45,858
-43,451
-41,044
-38,658
-36,306
-33,996
-31,731
-29,506
-27,313
-25,152
-23,023
-20,926
-18,858
-16,808
-14,766
-12,721
-10,668
-8,6
-6,515
-4,409
-2,279
-0,123
2,057
4,261
6,487
8,735
11,005
13,297
15,61
17,943
20,295
22,663
25,046
27,442
29,845
32,254
34,661
37,062
39,451
41,821
44,164
46,471
48,734
50,944
53,091
55,166
57,159
59,062
60,863
62,555
64,129
65,575
66,886
68,055
69,074
69,938
70,641
71,178
71,546
71,742
71,762
71,605
71,271
70,759
70,068
69,2
68,158
66,943
65,56
64,014
62,31
60,455
58,457
56,323
54,063
51,686
49,2
46,617
43,946
41,196
38,38
35,506
32,585
29,629
26,646
23,647
20,641
17,638
14,647
11,675
8,731
5,822
2,955
0,136
-2,628
-5,332
-7,97
-10,537
-13,03
-15,443
-17,776
-20,025
-22,188
-24,265
-26,254
-28,156
-29,972
-31,7
-33,342
-34,899
-36,371
-37,759
-39,066
-40,291
-41,438
-42,508
-43,503
-44,424
-45,274
-46,056
-46,77
-47,42
-48,006
-48,532
-48,999
-49,409
-49,765
-50,068
-50,321
-50,525
-50,682
-50,794
-50,863
-50,889
-50,874
-50,818
-50,723
-50,59
-50,419
-50,213
-49,972
-49,698
-49,394
-49,062
-48,703
-48,32
-47,915
-47,491
-47,05
-46,593
-46,124
-45,645
-45,156
-44,662
-44,162
-43,66
-43,156
-42,653
-42,151
-41,652
-41,157
-40,667
-40,183
-39,706
-39,237
-38,779
-38,332
-37,897
-37,477
-37,072
-36,682
-36,309
-35,953
-35,614
-35,292
-34,986
-34,694
-34,418
-34,155
-33,904
-33,665
-33,436
-33,216
-33,003
-32,798
-32,598
-32,404
-32,213
-32,026
-31,843
-31,662
-31,485
-31,311
-31,14
-30,974
-30,811
-30,652
-30,498
-30,348
-30,202
-30,06
-29,923
-29,791
-29,664
-29,543
-29,428
-29,322
-29,224
-29,137
-29,061
-28,998
-28,95
-28,917
-28,902
-28,907
-28,933
-28,981
-29,054
-29,152
-29,278
-29,431
-29,613
-29,824
-30,063
-30,331
-30,627
-30,948
-31,294
-31,662
-32,052
-32,462
-32,89
-33,335
-33,795
-34,269
-34,756
-35,254
-35,76
-36,269
-36,778
-37,283
-37,778
-38,26
-38,721
-39,156
-39,557
-39,923
-40,247
-40,522
-40,738
-40,884
-40,952
-40,939
-40,844
-40,67
-40,419
-40,101
-39,728
-39,323
-38,905
-38,488
-38,08
-37,684
-37,306
-36,955
-36,645
-36,385
-36,176
-36,01
-35,876
-35,76
-35,638
-35,475
-35,213
-34,782
-34,129
-33,216
-32,025
-30,549
-28,778
-26,705
-24,331
-21,666
-18,742
-15,597
-12,256
-8,757
-5,159
-1,548
1,952
5,212
8,132
10,641
12,695
14,262
15,308
15,808
15,766
15,2
14,144
12,617
10,591
8,054
5,028
1,576
-2,168
-6,087
-10,132
-14,282
-18,541
-22,932
-27,419
-32,027
-36,91
-42,111
-47,553
-52,997
-57,884
-61,677
-64,066
-64,689
-63,141
-59,412
-53,804
-47,028
-40,621
-36,068
-34,373
-36,651
-43,749
-55,463
-70,721
-87,591
-102,711
-112,432
-113,604
-102,516
-75,569
-32,309
24,843
92,986
167,174
245,944
332,82
424,997
515,242
590,774
631,546
626,582
575,866
485,954
370,602
242,927
112,91
-6,904
-101,926
-162,975
-187,692
-183,685
-167,331
-149,765
-135,269
-122,765
-106,749
-86,615
-65,51
-46,715
-33,944
-28,42
-29,583
-36,525
-47,239
-59,279
-70,621
-79,928
-86,71
-90,727
-91,529
-89,047
-83,716
-76,554
-68,921
-61,636
-54,972
-49,107
-44,249
-40,54
-38,027
-36,467
-35,344
-34,349
-33,364
-32,336
-31,284
-30,18
-28,993
-27,764
-26,594
-25,545
-24,645
-23,89
-23,236
-22,659
-22,136
-21,625
-21,107
-20,571
-20,019
-19,458
-18,89
-18,298
-17,655
-16,934
-16,116
-15,185
-14,127
-12,927
-11,58
-10,094
-8,497
-6,832
-5,12
-3,376
-1,6
0,206
2,041
3,892
5,75
7,616
9,491
11,376
13,27
15,171
17,083
19,02
21,004
23,062
25,213
27,467
29,83
32,307
34,898
37,606
40,427
43,35
46,365
49,462
52,633
55,869
59,158
62,483
65,826
69,168
72,49
75,776
79,007
82,167
85,238
88,206
91,057
93,779
96,357
98,78
101,033
103,103
104,978
106,647
108,098
109,322
110,31
111,053
111,546
111,784
111,763
111,481
110,937
110,132
109,067
107,748
106,177
104,363
102,313
100,037
97,544
94,846
91,955
88,885
85,648
82,258
78,73
75,077
71,316
67,46
63,524
59,524
55,473
51,389
47,285
43,176
39,076
35,001
30,964
26,978
23,057
19,213
15,457
11,801
8,255
4,828
1,529
-1,635
-4,658
-7,535
-10,26
-12,832
-15,247
-17,505
-19,604
-21,545
-23,329
-24,956
-26,429
-27,75
-28,921
-29,947
-30,831
-31,576
-32,189
-32,674
-33,037
-33,282
-33,417
-33,447
-33,38
-33,222
-32,98
-32,663
-32,276
-31,828
-31,327
-30,78
-30,194
-29,575
-28,931
-28,267
-27,587
-26,899
-26,205
-25,51
-24,817
-24,13
-23,452
-22,785
-22,131
-21,493
-20,87
-20,266
-19,68
-19,114
-18,567
-18,039
-17,532
-17,043
-16,574
-16,122
-15,686
-15,266
-14,859
-14,462
-14,074
-13,692
-13,312
-12,932
-12,549
-12,159
-11,761
-11,353
-10,931
-10,495
-10,043
-9,574
-9,088
-8,586
-8,068
-7,534
-6,987
-6,428
-5,858
-5,28
-4,697
-4,11
-3,522
-2,936
-2,353
-1,776
-1,208
-0,652
-0,109
0,417
0,924
1,409
1,867
2,297
2,696
3,059
3,384
3,667
3,906
4,098
4,241
4,334
4,376
4,366
4,307
4,2
4,049
3,856
3,626
3,364
3,073
2,76
2,428
2,081
1,723
1,359
0,995
0,635
0,285
-0,05
-0,365
-0,655
-0,913
-1,133
-1,311
-1,444
-1,527
-1,557
-1,525
-1,423
-1,246
-0,996
-0,673
-0,282
0,172
0,681
1,23
1,796
2,361
2,908
3,424
3,902
4,33
4,693
4,978
5,174
5,283
5,317
5,293
5,225
5,137
5,061
5,04
5,132
5,379
5,808
6,448
7,319
8,451
9,878
11,618
13,67
16,019
18,634
21,473
24,501
27,661
30,874
34,058
37,113
39,961
42,539
44,767
46,554
47,79
48,371
48,234
47,338
45,638
43,091
39,666
35,338
30,134
24,087
17,156
9,376
0,877
-8,098
-17,09
-25,601
-33,245
-39,598
-44,119
-46,517
-46,832
-45,497
-43,61
-42,335
-42,465
-44,828
-50,287
-59,176
-71,063
-84,534
-96,897
-105,256
-107,007
-99,265
-79,043
-43,642
6,814
68,88
138,474
210,564
284,993
366,424
452,371
537,137
607,859
641,321
626,583
559,903
443,646
299,376
146,255
3,868
-103,444
-169,128
-194,395
-187,777
-169,57
-150,431
-133,815
-119,78
-102,054
-79,974
-56,974
-36,111
-21,844
-15,973
-17,576
-25,193
-36,012
-46,889
-56,171
-63,044
-67,104
-68,329
-66,521
-61,796
-55,122
-47,964
-41,312
-35,592
-30,9
-27,133
-24,448
-23,005
-22,609
-22,826
-23,274
-23,744
-24,187
-24,65
-25,078
-25,349
-25,427
-25,348
-25,196
-25,065
-24,995
-24,982
-25,016
-25,099
-25,224
-25,376
-25,542
-25,708
-25,871
-26,041
-26,231
-26,459
-26,728
-27,029
-27,33
-27,583
-27,744
-27,778
-27,665
-27,399
-26,985
-26,445
-25,795
-25,051
-24,225
-23,316
-22,322
-21,236
-20,053
-18,768
-17,384
-15,915
-14,375
-12,775
-11,122
-9,416
-7,648
-5,807
-3,88
-1,858
0,267
2,494
4,82
7,239
9,738
12,304
14,923
17,583
20,274
22,986
25,707
28,421
31,114
33,769
36,367
38,892
41,325
43,651
45,856
47,924
49,846
51,612
53,212
54,638
55,881
56,933
57,788
58,438
58,877
59,101
59,104
58,883
58,437
57,765
56,868
55,748
54,406
52,848
51,079
49,103
46,929
44,565
42,018
39,298
36,416
33,382
30,208
26,907
23,49
19,971
16,362
12,677
8,929
5,13
1,293
-2,57
-6,445
-10,322
-14,187
-18,028
-21,833
-25,59
-29,288
-32,914
-36,458
-39,91
-43,26
-46,499
-49,618
-52,611
-55,47
-58,19
-60,765
-63,191
-65,464
-67,582
-69,542
-71,344
-72,987
-74,473
-75,802
-76,977
-78
-78,876
-79,606
-80,197
-80,651
-80,975
-81,174
-81,253
-81,221
-81,082
-80,846
-80,52
-80,113
-79,633
-79,089
-78,49
-77,845
-77,161
-76,447
-75,711
-74,961
-74,203
-73,445
-72,692
-71,95
-71,224
-70,518
-69,835
-69,18
-68,553
-67,956
-67,391
-66,858
-66,357
-65,887
-65,448
-65,04
-64,66
-64,306
-63,978
-63,671
-63,383
-63,109
-62,847
-62,59
-62,336
-62,077
-61,811
-61,531
-61,233
-60,913
-60,566
-60,19
-59,779
-59,332
-58,846
-58,319
-57,75
-57,138
-56,483
-55,786
-55,048
-54,271
-53,458
-52,612
-51,736
-50,834
-49,908
-48,964
-48,004
-47,032
-46,052
-45,068
-44,085
-43,107
-42,139
-41,187
-40,254
-39,347
-38,469
-37,627
-36,824
-36,063
-35,347
-34,681
-34,065
-33,502
-32,993
-32,538
-32,137
-31,79
-31,493
-31,246
-31,042
-30,879
-30,75
-30,65
-30,572
-30,508
-30,452
-30,398
-30,338
-30,268
-30,181
-30,072
-29,936
-29,77
-29,569
-29,329
-29,042
-28,702
-28,305
-27,844
-27,316
-26,718
-26,046
-25,299
-24,479
-23,59
-22,635
-21,615
-20,531
-19,378
-18,156
-16,872
-15,533
-14,15
-12,735
-11,304
-9,879
-8,492
-7,163
-5,905
-4,723
-3,609
-2,561
-1,582
-0,677
0,145
0,878
1,524
2,08
2,546
2,934
3,273
3,612
4,025
4,565
5,264
6,139
7,19
8,417
9,829
11,43
13,213
15,174
17,307
19,605
22,055
24,61
27,191
29,687
31,976
33,946
35,489
36,5
36,875
36,513
35,35
33,303
30,227
26,074
20,915
14,968
8,73
2,703
-2,763
-7,211
-10,102
-11,247
-10,788
-9,378
-8,52
-9,6
-13,458
-20,933
-32,562
-48,055
-66,468
-85,7
-101,96
-111,552
-111,624
-99,105
-71,51
-27,868
32,006
105,348
185,48
267,617
348,336
424,823
497,39
560,48
603,492
618,491
598,664
545,479
469,463
379,179
281,505
184,124
92,704
15,067
-38,31
-65,983
-74,149
-70
-63,72
-59,58
-54,558
-48,278
-40,864
-33,284
-29,092
-29,39
-33,187
-39,477
-46,738
-53,407
-58,428
-61,203
-61,44
-59,339
-55,507
-50,494
-44,798
-39,059
-33,855
-29,503
-26,176
-23,844
-22,316
-21,464
-21,184
-21,313
-21,688
-22,177
-22,678
-23,148
-23,577
-23,914
-24,084
-24,007
-23,619
-22,901
-21,867
-20,54
-18,953
-17,15
-15,184
-13,138
-11,11
-9,17
-7,359
-5,69
-4,146
-2,733
-1,472
-0,383
0,517
1,23
1,774
2,161
2,402
2,519
2,545
2,532
2,553
2,648
2,837
3,121
3,472
3,879
4,346
4,87
5,453
6,101
6,813
7,599
8,475
9,446
10,504
11,628
12,783
13,948
15,116
16,29
17,49
18,739
20,052
21,451
22,95
24,551
26,253
28,052
29,936
31,904
33,964
36,134
38,439
40,908
43,552
46,372
49,346
52,439
55,601
58,774
61,907
64,962
67,908
70,714
73,353
75,796
78,004
79,931
81,525
82,72
83,47
83,742
83,53
82,852
81,745
80,265
78,46
76,371
74,032
71,47
68,712
65,784
62,716
59,541
56,304
53,063
49,866
46,753
43,745
40,845
38,039
35,301
32,608
29,943
27,296
24,663
22,047
19,452
16,885
14,353
11,856
9,385
6,931
4,489
2,059
-0,351
-2,725
-5,042
-7,286
-9,438
-11,486
-13,423
-15,246
-16,955
-18,553
-20,049
-21,445
-22,745
-23,948
-25,056
-26,07
-26,995
-27,836
-28,6
-29,293
-29,925
-30,502
-31,032
-31,52
-31,972
-32,391
-32,78
-33,142
-33,481
-33,801
-34,105
-34,397
-34,681
-34,961
-35,24
-35,521
-35,806
-36,097
-36,395
-36,701
-37,017
-37,341
-37,675
-38,018
-38,371
-38,734
-39,107
-39,489
-39,88
-40,28
-40,688
-41,102
-41,522
-41,945
-42,37
-42,794
-43,216
-43,633
-44,041
-44,439
-44,822
-45,189
-45,536
-45,86
-46,157
-46,426
-46,663
-46,866
-47,033
-47,162
-47,252
-47,302
-47,312
-47,28
-47,207
-47,093
-46,939
-46,744
-46,509
-46,236
-45,925
-45,579
-45,199
-44,787
-44,347
-43,881
-43,392
-42,885
-42,363
-41,831
-41,293
-40,757
-40,227
-39,709
-39,209
-38,733
-38,289
-37,881
-37,516
-37,198
-36,932
-36,722
-36,571
-36,483
-36,458
-36,498
-36,604
-36,776
-37,013
-37,315
-37,68
-38,106
-38,592
-39,135
-39,732
-40,378
-41,067
-41,791
-42,546
-43,321
-44,11
-44,903
-45,688
-46,456
-47,198
-47,902
-48,557
-49,148
-49,656
-50,067
-50,372
-50,566
-50,644
-50,608
-50,457
-50,203
-49,864
-49,454
-48,987
-48,471
-47,905
-47,293
-46,645
-45,974
-45,297
-44,622
-43,941
-43,251
-42,543
-41,798
-40,989
-40,067
-38,964
-37,626
-36,019
-34,124
-31,948
-29,487
-26,741
-23,715
-20,418
-16,874
-13,124
-9,197
-5,123
-0,959
3,223
7,313
11,167
14,679
17,769
20,385
22,504
24,098
25,143
25,643
25,605
25,046
23,983
22,384
20,216
17,477
14,196
10,459
6,38
2,006
-2,645
-7,574
-12,812
-18,345
-24,2
-30,524
-37,355
-44,601
-52,025
-59,1
-65,286
-70,233
-73,509
-74,591
-73,342
-69,961
-65,037
-59,934
-55,986
-54,089
-55,296
-60,54
-69,818
-82,219
-95,991
-108,023
-114,809
-113,29
-99,827
-70,631
-25,085
34,164
104,139
180,178
261,586
353,49
454,191
555,931
643,822
694,556
694,573
643,49
549,931
431,091
303
176,61
63,06
-25,839
-83,36
-108,056
-107,155
-96,164
-85,693
-80,558
-80,114
-78,469
-74,247
-69,371
-65,874
-66,674
-71,909
-79,56
-88,179
-96,081
-101,722
-104,619
-104,565
-101,61
-96,381
-89,569
-81,739
-73,571
-65,737
-58,584
-52,281
-46,863
-42,178
-38,109
-34,583
-31,489
-28,743
-26,318
-24,229
-22,521
-21,228
-20,333
-19,789
-19,544
-19,551
-19,789
-20,259
-20,971
-21,952
-23,243
-24,886
-26,9
-29,263
-31,911
-34,746
-37,649
-40,526
-43,296
-45,88
-48,219
-50,268
-51,984
-53,334
-54,279
-54,752
-54,676
-53,982
-52,628
-50,615
-47,98
-44,785
-41,12
-37,077
-32,754
-28,262
-23,686
-19,086
-14,509
-9,982
-5,539
-1,233
2,872
6,723
10,284
13,536
16,479
19,118
21,482
23,611
25,562
27,403
29,18
30,924
32,647
34,356
36,054
37,756
39,475
41,216
42,983
44,775
46,592
48,432
50,285
52,129
53,936
55,669
57,302
58,818
60,206
61,456
62,563
63,52
64,322
64,973
65,471
65,814
66
66,024
65,885
65,585
65,13
64,526
63,778
62,89
61,868
60,715
59,438
58,04
56,525
54,897
53,16
51,32
49,386
47,366
45,268
43,101
40,874
38,598
36,282
33,935
31,565
29,183
26,795
24,412
22,04
19,688
17,363
15,073
12,823
10,62
8,471
6,38
4,351
2,389
0,498
-1,318
-3,058
-4,718
-6,297
-7,793
-9,205
-10,533
-11,777
-12,938
-14,017
-15,017
-15,94
-16,788
-17,565
-18,273
-18,918
-19,501
-20,028
-20,502
-20,927
-21,308
-21,648
-21,951
-22,221
-22,461
-22,674
-22,863
-23,03
-23,177
-23,306
-23,42
-23,518
-23,604
-23,677
-23,738
-23,79
-23,83
-23,86
-23,879
-23,887
-23,883
-23,865
-23,832
-23,784
-23,72
-23,638
-23,536
-23,414
-23,27
-23,103
-22,912
-22,694
-22,448
-22,174
-21,871
-21,537
-21,174
-20,781
-20,36
-19,91
-19,434
-18,933
-18,409
-17,863
-17,298
-16,716
-16,12
-15,512
-14,895
-14,272
-13,647
-13,024
-12,404
-11,792
-11,189
-10,599
-10,024
-9,466
-8,927
-8,41
-7,915
-7,446
-7,003
-6,589
-6,205
-5,851
-5,53
-5,241
-4,985
-4,762
-4,57
-4,409
-4,278
-4,177
-4,103
-4,055
-4,031
-4,03
-4,048
-4,085
-4,136
-4,2
-4,274
-4,355
-4,442
-4,533
-4,627
-4,723
-4,821
-4,921
-5,022
-5,125
-5,229
-5,336
-5,444
-5,554
-5,666
-5,78
-5,894
-6,01
-6,125
-6,242
-6,36
-6,478
-6,598
-6,72
-6,845
-6,974
-7,106
-7,241
-7,377
-7,514
-7,651
-7,786
-7,917
-8,042
-8,156
-8,259
-8,348
-8,416
-8,458
-8,46
-8,415
-8,319
-8,172
-7,975
-7,733
-7,454
-7,15
-6,844
-6,554
-6,296
-6,08
-5,91
-5,79
-5,729
-5,739
-5,834
-6,024
-6,298
-6,645
-7,049
-7,479
-7,895
-8,239
-8,43
-8,403
-8,113
-7,524
-6,624
-5,406
-3,858
-1,977
0,238
2,778
5,618
8,722
12,054
15,545
19,104
22,619
25,939
28,947
31,563
33,714
35,357
36,457
36,977
36,92
36,299
35,096
33,3
30,89
27,83
24,208
20,146
15,625
10,686
5,303
-0,622
-6,937
-13,498
-20,467
-27,926
-35,625
-43,267
-50,163
-55,496
-59,204
-61,244
-61,155
-58,789
-54,463
-48,881
-43,714
-40,813
-40,862
-44,36
-52,049
-64,048
-79,829
-97,807
-114,661
-126,577
-130,738
-124,379
-104,519
-68,932
-16,206
52,043
130,622
214,179
298,768
383,537
469,107
551,962
622,761
667,65
674,667
638,711
564,285
464,31
349,625
231,861
122,373
26,625
-45,887
-91,839
-118,027
-129,339
-134,035
-136,842
-134,351
-125,972
-112,792
-97,282
-84,429
-76,562
-73,475
-74,325
-77,522
-81,762
-85,819
-88,193
-88,018
-85,086
-79,686
-72,483
-64,086
-55,021
-45,948
-37,552
-30,249
-24,224
-19,467
-15,847
-13,318
-11,85
-11,34
-11,653
-12,649
-14,213
-16,264
-18,734
-21,519
-24,496
-27,558
-30,623
-33,642
-36,566
-39,334
-41,861
-44,042
-45,811
-47,135
-47,995
-48,398
-48,352
-47,87
-46,988
-45,756
-44,226
-42,441
-40,43
-38,204
-35,79
-33,225
-30,561
-27,865
-25,186
-22,553
-19,994
-17,523
-15,154
-12,899
-10,751
-8,691
-6,706
-4,784
-2,918
-1,107
0,657
2,392
4,117
5,856
7,625
9,437
11,301
13,229
15,23
17,305
19,449
21,65
23,896
26,176
28,476
30,78
33,066
35,311
37,498
39,611
41,638
43,573
45,404
47,123
48,727
50,225
51,634
52,977
54,275
55,55
56,826
58,143
59,543
61,059
62,719
64,54
66,53
68,691
71,024
73,518
76,146
78,857
81,582
84,242
86,759
89,061
91,071
92,692
93,827
94,389
94,298
93,493
91,932
89,576
86,393
82,374
77,541
71,942
65,661
58,799
51,461
43,747
35,764
27,633
19,484
11,448
3,65
-3,804
-10,825
-17,334
-23,25
-28,513
-33,09
-36,964
-40,153
-42,699
-44,642
-46,024
-46,886
-47,271
-47,236
-46,852
-46,194
-45,321
-44,275
-43,078
-41,762
-40,356
-38,886
-37,381
-35,848
-34,273
-32,655
-30,994
-29,308
-27,637
-26,011
-24,432
-22,901
-21,43
-20,054
-18,843
-17,864
-17,161
-16,765
-16,692
-16,964
-17,627
-18,722
-20,263
-22,237
-24,597
-27,292
-30,3
-33,608
-37,177
-40,947
-44,808
-48,638
-52,348
-55,875
-59,157
-62,139
-64,732
-66,833
-68,376
-69,329
-69,686
-69,454
-68,615
-67,134
-65,014
-62,292
-59,039
-55,36
-51,335
-47,014
-42,462
-37,748
-32,961
-28,228
-23,653
-19,301
-15,238
-11,521
-8,218
-5,422
-3,191
-1,545
-0,496
-0,023
-0,109
-0,761
-1,965
-3,69
-5,907
-8,552
-11,556
-14,879
-18,467
-22,257
-26,193
-30,194
-34,19
-38,132
-41,955
-45,597
-49,013
-52,141
-54,933
-57,362
-59,373
-60,931
-62,024
-62,62
-62,706
-62,283
-61,336
-59,856
-57,86
-55,366
-52,42
-49,099
-45,461
-41,571
-37,501
-33,309
-29,085
-24,922
-20,887
-17,054
-13,496
-10,273
-7,467
-5,172
-3,45
-2,344
-1,882
-2,043
-2,814
-4,182
-6,107
-8,55
-11,457
-14,762
-18,414
-22,368
-26,56
-30,927
-35,388
-39,832
-44,171
-48,318
-52,187
-55,728
-58,898
-61,653
-63,978
-65,865
-67,302
-68,287
-68,807
-68,84
-68,385
-67,449
-66,05
-64,236
-62,054
-59,564
-56,844
-53,953
-50,938
-47,842
-44,688
-41,496
-38,295
-35,113
-31,978
-28,937
-26,022
-23,259
-20,68
-18,292
-16,096
-14,08
-12,208
-10,454
-8,805
-7,252
-5,797
-4,45
-3,209
-2,078
-1,063
-0,161
0,632
1,325
1,945
2,509
3,028
3,504
3,923
4,274
4,556
4,771
4,93
5,048
5,13
5,196
5,274
5,38
5,53
5,71
5,859
5,914
5,822
5,536
5,055
4,369
3,434
2,216
0,677
-1,233
-3,518
-6,251
-9,611
-13,648
-18,277
-23,231
-27,965
-31,947
-34,787
-35,959
-34,909
-31,536
-26,1
-19,518
-13,333
-8,844
-7,348
-10,155
-17,995
-30,857
-46,579
-61,748
-73,837
-79,462
-77,971
-68,574
-45,48
-7,595
47,603
122,353
209,509
307,767
413,454
514,603
603,072
663,821
681,208
653,187
580,835
470,99
339,923
200,284
67,928
-36,773
-105,031
-134,421
-132,282
-117,992
-103,112
-92,915
-87,647
-79,931
-68,181
-55,007
-42,686
-35,302
-33,93
-36,646
-41,91
-47,808
-52,278
-54,523
-54,303
-51,554
-46,88
-41,03
-34,549
-28,117
-22,489
-18,031
-14,882
-13,081
-12,406
-12,669
-13,766
-15,483
-17,615
-20,016
-22,529
-25,036
-27,458
-29,673
-31,575
-33,102
-34,199
-34,853
-35,076
-34,865
-34,239
-33,227
-31,85
-30,16
-28,212
-26,045
-23,717
-21,284
-18,796
-16,318
-13,895
-11,553
-9,31
-7,174
-5,139
-3,211
-1,385
0,347
1,986
3,543
5,031
6,454
7,824
9,154
10,453
11,738
13,025
14,32
15,628
16,954
18,299
19,668
21,066
22,5
23,973
25,489
27,046
28,645
30,283
31,955
33,654
35,364
37,071
38,759
40,417
42,043
43,634
45,187
46,697
48,157
49,567
50,94
52,296
53,65
55,02
56,423
57,878
59,424
61,092
62,909
64,893
67,042
69,344
71,794
74,385
77,108
79,937
82,817
85,672
88,437
91,045
93,433
95,533
97,252
98,498
99,196
99,291
98,754
97,57
95,714
93,157
89,879
85,885
81,225
75,984
70,241
64,068
57,548
50,77
43,857
36,943
30,133
23,51
17,131
11,046
5,32
0,034
-4,744
-8,968
-12,635
-15,775
-18,415
-20,577
-22,298
-23,629
-24,653
-25,471
-26,154
-26,747
-27,279
-27,78
-28,291
-28,871
-29,572
-30,426
-31,443
-32,618
-33,946
-35,429
-37,049
-38,778
-40,564
-42,344
-44,079
-45,749
-47,343
-48,85
-50,257
-51,54
-52,681
-53,674
-54,519
-55,215
-55,761
-56,156
-56,403
-56,522
-56,537
-56,48
-56,373
-56,229
-56,054
-55,858
-55,646
-55,424
-55,197
-54,962
-54,716
-54,464
-54,211
-53,966
-53,743
-53,545
-53,369
-53,211
-53,059
-52,906
-52,747
-52,575
-52,375
-52,142
-51,875
-51,583
-51,287
-51
-50,727
-50,463
-50,191
-49,902
-49,602
-49,301
-49,017
-48,768
-48,568
-48,447
-48,458
-48,636
-49,002
-49,543
-50,211
-50,965
-51,781
-52,645
-53,554
-54,494
-55,427
-56,317
-57,138
-57,861
-58,457
-58,864
-58,982
-58,726
-58,047
-56,944
-55,476
-53,696
-51,632
-49,322
-46,805
-44,139
-41,404
-38,655
-35,915
-33,206
-30,563
-28,058
-25,815
-23,945
-22,52
-21,567
-21,075
-21,036
-21,457
-22,323
-23,586
-25,185
-27,047
-29,142
-31,488
-34,104
-36,984
-40,09
-43,35
-46,694
-50,075
-53,454
-56,786
-60,009
-63,056
-65,894
-68,517
-70,933
-73,135
-75,073
-76,664
-77,828
-78,513
-78,681
-78,298
-77,333
-75,761
-73,574
-70,809
-67,532
-63,809
-59,692
-55,23
-50,477
-45,519
-40,482
-35,489
-30,66
-26,099
-21,901
-18,177
-15,04
-12,577
-10,862
-9,936
-9,808
-10,484
-11,964
-14,213
-17,18
-20,77
-24,852
-29,308
-34,013
-38,847
-43,703
-48,461
-53
-57,216
-60,999
-64,232
-66,812
-68,643
-69,635
-69,744
-68,942
-67,233
-64,663
-61,283
-57,167
-52,393
-47,026
-41,135
-34,786
-28,054
-21,037
-13,887
-6,772
0,134
6,647
12,618
17,908
22,364
25,875
28,353
29,741
29,993
29,053
26,801
23,05
17,749
10,97
2,907
-6,027
-15,349
-24,58
-33,071
-40,056
-45,194
-48,468
-50,046
-50,961
-52,63
-56,315
-63,691
-75,164
-88,886
-103,143
-117,29
-132,907
-152,935
-176,769
-196,653
-198,5
-170,293
-107,475
-15,313
92,375
205,759
319,451
428,185
526,335
600,418
636,053
626,543
573,363
487,07
378,855
258,188
133,851
16,101
-79,732
-142,663
-169,445
-166,974
-152,076
-136,851
-126,507
-120,262
-111,712
-99,192
-85,329
-72,916
-65,359
-63,185
-64,502
-67,85
-71,724
-74,696
-75,842
-74,619
-70,95
-65,298
-58,393
-50,85
-43,178
-35,934
-29,629
-24,588
-20,96
-18,718
-17,691
-17,716
-18,643
-20,285
-22,454
-24,971
-27,674
-30,422
-33,089
-35,563
-37,745
-39,537
-40,843
-41,565
-41,611
-40,921
-39,487
-37,343
-34,565
-31,263
-27,533
-23,481
-19,203
-14,776
-10,295
-5,863
-1,586
2,425
6,052
9,207
11,769
13,585
14,632
15,042
15,106
15,186
15,449
15,802
16,123
16,443
16,735
16,78
16,05
13,897
10,171
5,411
0,471
-4,09
-7,898
-10,509
-11,173
-8,911
-3,299
5,133
15,263
26,22
37,468
48,568
58,93
67,646
74,105
78,441
81,322
83,33
84,777
85,794
86,494
87,232
88,324
89,779
91,373
92,866
94,135
95,197
96,136
96,957
97,637
98,188
98,655
99,099
99,555
100,013
100,431
100,762
100,968
101,021
100,896
100,574
100,04
99,281
98,288
97,058
95,59
93,892
91,976
89,851
87,527
85,014
82,319
79,455
76,432
73,259
69,945
66,5
62,936
59,268
55,518
51,712
47,876
44,032
40,193
36,37
32,567
28,787
25,036
21,316
17,635
13,999
10,411
6,88
3,412
0,004
-3,359
-6,712
-10,099
-13,544
-17,062
-20,657
-24,317
-28,034
-31,786
-35,532
-39,239
-42,867
-46,379
-49,755
-52,975
-56,001
-58,785
-61,247
-63,299
-64,883
-65,952
-66,468
-66,411
-65,753
-64,499
-62,692
-60,382
-57,625
-54,475
-50,963
-47,127
-43,025
-38,725
-34,322
-29,923
-25,604
-21,442
-17,521
-13,916
-10,72
-7,994
-5,747
-3,977
-2,674
-1,822
-1,425
-1,479
-1,959
-2,838
-4,077
-5,625
-7,446
-9,492
-11,69
-13,963
-16,207
-18,329
-20,281
-22,025
-23,533
-24,789
-25,767
-26,445
-26,817
-26,869
-26,584
-25,958
-24,985
-23,671
-22,052
-20,178
-18,121
-15,97
-13,783
-11,609
-9,487
-7,445
-5,506
-3,7
-2,044
-0,561
0,715
1,759
2,548
3,064
3,311
3,307
3,081
2,687
2,164
1,543
0,848
0,094
-0,708
-1,544
-2,405
-3,285
-4,166
-5,033
-5,873
-6,667
-7,409
-8,097
-8,735
-9,336
-9,913
-10,467
-11,001
-11,513
-11,998
-12,45
-12,865
-13,23
-13,542
-13,799
-13,998
-14,14
-14,222
-14,24
-14,19
-14,068
-13,869
-13,592
-13,237
-12,804
-12,3
-11,733
-11,107
-10,43
-9,706
-8,933
-8,116
-7,261
-6,374
-5,468
-4,56
-3,669
-2,824
-2,053
-1,374
-0,8
-0,334
0,028
0,284
0,438
0,496
0,454
0,309
0,067
-0,268
-0,674
-1,104
-1,504
-1,798
-1,904
-1,77
-1,354
-0,626
0,417
1,774
3,433
5,352
7,509
9,891
12,47
15,212
18,044
20,836
23,45
25,735
27,54
28,745
29,23
28,885
27,636
25,445
22,34
18,342
13,414
7,582
0,943
-6,242
-13,449
-20,176
-26,014
-30,404
-32,812
-33,035
-30,985
-27,167
-22,833
-18,885
-16,104
-15,785
-18,554
-24,062
-32,093
-39,908
-43,37
-41,103
-30,504
-10,594
16,579
52,806
98,965
155,844
226,845
311,531
406,271
501,949
584,123
637,678
648,437
612,323
532,416
415,952
280,794
143,541
21,634
-64,718
-110,475
-119,155
-102,06
-79,573
-62,035
-51,84
-47,045
-40,432
-30,476
-19,846
-10,953
-6,867
-7,856
-11,893
-17,439
-22,804
-26,546
-28,233
-27,72
-25,151
-21,12
-16,244
-11,023
-6,015
-1,745
1,541
3,751
4,927
5,267
4,933
4,057
2,795
1,299
-0,316
-1,952
-3,525
-4,975
-6,225
-7,21
-7,893
-8,25
-8,279
-7,99
-7,399
-6,536
-5,432
-4,125
-2,649
-1,034
0,687
2,477
4,296
6,105
7,866
9,553
11,151
12,649
14,047
15,348
16,563
17,706
18,794
19,842
20,863
21,867
22,865
23,871
24,898
25,96
27,068
28,235
29,469
30,778
32,17
33,648
35,215
36,871
38,617
40,451
42,374
44,383
46,477
48,652
50,905
53,231
55,623
58,074
60,577
63,12
65,693
68,286
70,885
73,479
76,053
78,596
81,092
83,528
85,889
88,16
90,326
92,374
94,287
96,054
97,659
99,093
100,342
101,398
102,252
102,896
103,324
103,531
103,515
103,273
102,803
102,107
101,185
100,042
98,682
97,109
95,331
93,354
91,188
88,842
86,324
83,646
80,819
77,852
74,76
71,554
68,248
64,854
61,387
57,86
54,288
50,683
47,059
43,427
39,798
36,185
32,596
29,041
25,529
22,068
18,663
15,322
12,05
8,85
5,725
2,678
-0,291
-3,18
-5,99
-8,72
-11,37
-13,941
-16,433
-18,844
-21,173
-23,421
-25,589
-27,678
-29,689
-31,625
-33,489
-35,286
-37,019
-38,692
-40,306
-41,861
-43,357
-44,794
-46,17
-47,483
-48,732
-49,914
-51,029
-52,08
-53,067
-53,989
-54,84
-55,612
-56,298
-56,895
-57,402
-57,819
-58,146
-58,392
-58,572
-58,71
-58,83
-58,95
-59,075
-59,203
-59,332
-59,458
-59,577
-59,685
-59,768
-59,813
-59,809
-59,748
-59,616
-59,389
-59,02
-58,447
-57,612
-56,469
-54,997
-53,189
-51,047
-48,592
-45,861
-42,903
-39,79
-36,585
-33,344
-30,126
-26,997
-24,032
-21,335
-19,025
-17,209
-15,989
-15,44
-15,613
-16,545
-18,228
-20,623
-23,667
-27,27
-31,354
-35,84
-40,63
-45,612
-50,671
-55,674
-60,485
-64,972
-68,994
-72,427
-75,173
-77,158
-78,358
-78,775
-78,433
-77,368
-75,61
-73,208
-70,247
-66,832
-63,065
-59,05
-54,895
-50,71
-46,637
-42,802
-39,307
-36,226
-33,596
-31,447
-29,808
-28,708
-28,175
-28,211
-28,777
-29,819
-31,288
-33,129
-35,282
-37,674
-40,193
-42,745
-45,262
-47,694
-50,015
-52,189
-54,169
-55,908
-57,359
-58,498
-59,32
-59,832
-60,036
-59,942
-59,573
-58,968
-58,19
-57,289
-56,292
-55,218
-54,074
-52,876
-51,648
-50,415
-49,198
-48,013
-46,872
-45,788
-44,777
-43,845
-42,989
-42,197
-41,446
-40,725
-40,04
-39,397
-38,81
-38,293
-37,855
-37,506
-37,256
-37,104
-37,042
-37,052
-37,118
-37,224
-37,366
-37,535
-37,727
-37,931
-38,118
-38,266
-38,347
-38,331
-38,194
-37,919
-37,506
-36,984
-36,411
-35,844
-35,329
-34,921
-34,674
-34,667
-34,991
-35,735
-36,976
-38,807
-41,384
-44,796
-49,024
-53,908
-59,046
-63,97
-68,294
-71,601
-73,392
-73,431
-71,808
-69,009
-66,246
-64,817
-65,627
-69,533
-77,237
-88,722
-103,236
-119,086
-133,078
-141,732
-142,235
-131,657
-107,312
-67,665
-12,328
56,4
132,906
211,406
287,494
359,943
429,272
493,591
547,524
578,96
575,808
531,449
444,881
328,72
200,855
79,911
-14,31
-75,004
-103,762
-108,625
-105,829
-103,999
-105,566
-109,688
-109,892
-104,559
-96,499
-88,154
-82,882
-81,8
-83,545
-86,957
-90,999
-94,476
-96,459
-96,497
-94,451
-90,603
-85,598
-79,983
-74,155
-68,61
-63,852
-60,149
-57,635
-56,27
-55,855
-56,236
-57,295
-58,873
-60,813
-62,973
-65,217
-67,427
-69,512
-71,365
-72,899
-74,061
-74,814
-75,146
-75,059
-74,567
-73,699
-72,493
-70,993
-69,24
-67,272
-65,129
-62,858
-60,512
-58,14
-55,792
-53,501
-51,288
-49,169
-47,147
-45,223
-43,392
-41,64
-39,952
-38,314
-36,718
-35,156
-33,619
-32,099
-30,582
-29,059
-27,52
-25,957
-24,362
-22,73
-21,058
-19,342
-17,583
-15,779
-13,933
-12,046
-10,116
-8,145
-6,131
-4,076
-1,982
0,149
2,314
4,509
6,73
8,969
11,219
13,474
15,726
17,966
20,187
22,38
24,536
26,647
28,702
30,694
32,612
34,447
36,191
37,834
39,368
40,784
42,077
43,238
44,262
45,144
45,877
46,458
46,883
47,149
47,253
47,193
46,968
46,578
46,025
45,31
44,436
43,407
42,228
40,902
39,437
37,837
36,109
34,26
32,297
30,226
28,056
25,795
23,452
21,036
18,556
16,021
13,44
10,823
8,179
5,515
2,84
0,162
-2,51
-5,169
-7,806
-10,415
-12,987
-15,515
-17,992
-20,412
-22,77
-25,061
-27,281
-29,428
-31,497
-33,489
-35,399
-37,226
-38,969
-40,625
-42,192
-43,667
-45,051
-46,34
-47,537
-48,641
-49,656
-50,585
-51,433
-52,204
-52,904
-53,535
-54,103
-54,61
-55,061
-55,455
-55,796
-56,088
-56,338
-56,557
-56,751
-56,928
-57,087
-57,229
-57,348
-57,436
-57,482
-57,472
-57,397
-57,252
-57,043
-56,781
-56,482
-56,159
-55,821
-55,468
-55,105
-54,736
-54,368
-54,008
-53,668
-53,371
-53,151
-53,053
-53,112
-53,347
-53,758
-54,328
-55,036
-55,844
-56,719
-57,632
-58,541
-59,419
-60,242
-60,992
-61,653
-62,191
-62,55
-62,661
-62,468
-61,929
-61,033
-59,778
-58,169
-56,244
-54,052
-51,652
-49,126
-46,531
-43,905
-41,28
-38,68
-36,139
-33,721
-31,492
-29,506
-27,816
-26,45
-25,438
-24,817
-24,577
-24,688
-25,099
-25,728
-26,52
-27,446
-28,478
-29,596
-30,78
-31,992
-33,197
-34,377
-35,501
-36,545
-37,475
-38,245
-38,84
-39,268
-39,554
-39,745
-39,87
-39,943
-39,977
-39,982
-39,964
-39,931
-39,884
-39,811
-39,709
-39,582
-39,439
-39,303
-39,18
-39,066
-38,952
-38,817
-38,65
-38,446
-38,197
-37,894
-37,532
-37,111
-36,632
-36,108
-35,543
-34,939
-34,294
-33,605
-32,87
-32,091
-31,269
-30,405
-29,497
-28,539
-27,532
-26,479
-25,387
-24,262
-23,113
-21,949
-20,783
-19,637
-18,53
-17,477
-16,487
-15,564
-14,71
-13,938
-13,258
-12,685
-12,23
-11,887
-11,643
-11,479
-11,366
-11,265
-11,124
-10,874
-10,455
-9,821
-8,943
-7,812
-6,421
-4,755
-2,795
-0,518
2,094
5,035
8,284
11,811
15,569
19,49
23,486
27,443
31,248
34,816
38,087
41,026
43,598
45,746
47,399
48,467
48,876
48,583
47,552
45,748
43,14
39,719
35,498
30,537
24,885
18,494
11,354
3,561
-4,682
-12,956
-20,769
-27,706
-33,309
-36,991
-38,42
-37,664
-35,158
-32,018
-29,546
-28,704
-30,474
-35,856
-45,143
-57,663
-71,922
-85,179
-93,995
-95,275
-85,895
-62,376
-23,36
29,412
93,781
166,238
244,737
331,994
427,718
525,983
616,461
681,759
705,968
683,013
613,355
507,023
381,569
253,491
140,853
56,767
3,743
-21,976
-32,321
-39,146
-46,811
-54,958
-58,672
-54,476
-44,265
-32,214
-22,835
-18,387
-18,516
-21,957
-27,242
-33,299
-38,984
-42,969
-44,541
-43,561
-40,326
-35,483
-29,623
-23,245
-16,962
-11,387
-6,873
-3,551
-1,371
-0,156
0,231
-0,104
-1,021
-2,362
-3,994
-5,803
-7,69
-9,572
-11,344
-12,883
-14,105
-14,953
-15,396
-15,43
-15,063
-14,305
-13,187
-11,751
-10,034
-8,078
-5,922
-3,604
-1,171
1,328
3,84
6,317
8,722
11,032
13,233
15,321
17,298
19,17
20,947
22,646
24,28
25,858
27,389
28,88
30,34
31,781
33,213
34,647
36,091
37,553
39,037
40,549
42,092
43,667
45,275
46,915
48,588
50,294
52,035
53,812
55,625
57,475
59,361
61,282
63,236
65,219
67,228
69,256
71,299
73,35
75,401
77,444
79,473
81,477
83,449
85,378
87,256
89,072
90,818
92,483
94,059
95,535
96,903
98,155
99,282
100,276
101,132
101,841
102,399
102,8
103,04
103,114
103,019
102,752
102,312
101,698
100,909
99,947
98,814
97,512
96,045
94,418
92,635
90,705
88,632
86,425
84,093
81,643
79,084
76,428
73,682
70,858
67,967
65,018
62,022
58,991
55,934
52,862
49,787
46,717
43,664
40,636
37,644
34,697
31,803
28,971
26,209
23,524
20,922
18,411
15,994
13,677
11,464
9,358
7,361
5,476
3,703
2,044
0,498
-0,935
-2,257
-3,469
-4,573
-5,573
-6,47
-7,269
-7,973
-8,587
-9,115
-9,562
-9,933
-10,234
-10,469
-10,644
-10,765
-10,838
-10,869
-10,862
-10,823
-10,757
-10,67
-10,565
-10,447
-10,32
-10,187
-10,051
-9,915
-9,781
-9,65
-9,526
-9,408
-9,298
-9,197
-9,106
-9,024
-8,953
-8,891
-8,839
-8,796
-8,762
-8,735
-8,715
-8,7
-8,689
-8,68
-8,672
-8,663
-8,651
-8,635
-8,613
-8,584
-8,547
-8,499
-8,442
-8,374
-8,296
-8,207
-8,109
-8,003
-7,889
-7,769
-7,644
-7,515
-7,384
-7,253
-7,121
-6,993
-6,867
-6,748
-6,634
-6,53
-6,435
-6,352
-6,282
-6,228
-6,19
-6,171
-6,172
-6,195
-6,243
-6,316
-6,417
-6,548
-6,71
-6,904
-7,132
-7,393
-7,687
-8,015
-8,374
-8,766
-9,188
-9,64
-10,12
-10,629
-11,165
-11,729
-12,318
-12,932
-13,57
-14,23
-14,912
-15,614
-16,334
-17,069
-17,818
-18,579
-19,35
-20,127
-20,909
-21,692
-22,473
-23,251
-24,021
-24,781
-25,525
-26,248
-26,947
-27,616
-28,253
-28,851
-29,408
-29,918
-30,38
-30,79
-31,146
-31,442
-31,671
-31,823
-31,892
-31,874
-31,769
-31,58
-31,311
-30,971
-30,574
-30,138
-29,682
-29,216
-28,749
-28,281
-27,817
-27,36
-26,921
-26,514
-26,151
-25,834
-25,563
-25,331
-25,12
-24,903
-24,638
-24,262
-23,724
-22,984
-22,019
-20,825
-19,401
-17,753
-15,883
-13,787
-11,467
-8,921
-6,155
-3,182
-0,033
3,241
6,561
9,824
12,929
15,797
18,375
20,63
22,546
24,115
25,318
26,133
26,523
26,424
25,785
24,572
22,755
20,327
17,292
13,671
9,494
4,792
-0,453
-6,328
-12,88
-20,053
-27,632
-35,22
-42,37
-48,685
-53,757
-57,054
-58,208
-57,291
-54,834
-51,974
-50,028
-49,875
-52,205
-57,855
-67,194
-79,657
-93,724
-106,526
-114,639
-115,519
-106,699
-85,276
-49,09
2,843
68,781
143,635
222,143
300,75
379,195
458,648
535,763
601,87
642,874
644,879
603,938
526,778
429,119
328,154
234,306
150,982
76,51
10,059
-46,181
-89,28
-116,746
-128,837
-128,376
-118,859
-103,902
-87,275
-72,272
-60,949
-54,276
-52,219
-53,955
-58,442
-64,588
-70,829
-75,539
-77,844
-77,443
-74,539
-69,742
-63,625
-56,709
-49,657
-43,135
-37,517
-32,963
-29,46
-26,853
-25,027
-23,904
-23,377
-23,329
-23,7
-24,446
-25,518
-26,88
-28,456
-30,138
-31,857
-33,558
-35,186
-36,701
-38,053
-39,184
-40,072
-40,713
-41,092
-41,197
-40,999
-40,473
-39,625
-38,475
-37,054
-35,4
-33,536
-31,481
-29,271
-26,94
-24,529
-22,089
-19,643
-17,206
-14,799
-12,438
-10,148
-7,951
-5,853
-3,848
-1,932
-0,099
1,652
3,324
4,932
6,493
8,027
9,556
11,094
12,649
14,231
15,848
17,506
19,211
20,964
22,759
24,595
26,471
28,384
30,336
32,319
34,327
36,352
38,386
40,421
42,451
44,466
46,46
48,424
50,351
52,235
54,068
55,843
57,551
59,182
60,727
62,177
63,522
64,753
65,861
66,838
67,676
68,369
68,909
69,291
69,511
69,562
69,442
69,147
68,674
68,024
67,195
66,189
65,007
63,652
62,128
60,438
58,589
56,587
54,437
52,149
49,729
47,188
44,534
41,778
38,931
36,005
33,01
29,96
26,864
23,736
20,588
17,43
14,276
11,134
8,018
4,937
1,902
-1,077
-3,992
-6,834
-9,595
-12,268
-14,846
-17,325
-19,699
-21,964
-24,118
-26,159
-28,084
-29,893
-31,586
-33,165
-34,629
-35,983
-37,228
-38,369
-39,41
-40,356
-41,211
-41,98
-42,671
-43,287
-43,836
-44,323
-44,755
-45,136
-45,474
-45,774
-46,042
-46,283
-46,503
-46,706
-46,898
-47,081
-47,26
-47,437
-47,616
-47,798
-47,985
-48,178
-48,379
-48,586
-48,801
-49,023
-49,25
-49,482
-49,716
-49,952
-50,185
-50,415
-50,639
-50,854
-51,058
-51,249
-51,424
-51,582
-51,72
-51,838
-51,933
-52,005
-52,051
-52,073
-52,068
-52,038
-51,981
-51,899
-51,793
-51,665
-51,515
-51,347
-51,163
-50,966
-50,758
-50,543
-50,325
-50,107
-49,893
-49,688
-49,497
-49,323
-49,173
-49,05
-48,959
-48,905
-48,891
-48,922
-48,999
-49,127
-49,306
-49,54
-49,83
-50,177
-50,582
-51,046
-51,568
-52,15
-52,79
-53,486
-54,238
-55,042
-55,896
-56,797
-57,742
-58,727
-59,748
-60,8
-61,881
-62,983
-64,103
-65,234
-66,37
-67,504
-68,628
-69,736
-70,82
-71,873
-72,888
-73,858
-74,778
-75,642
-76,447
-77,189
-77,866
-78,475
-79,015
-79,484
-79,877
-80,194
-80,432
-80,588
-80,663
-80,656
-80,571
-80,41
-80,178
-79,881
-79,525
-79,113
-78,646
-78,125
-77,55
-76,924
-76,256
-75,556
-74,841
-74,131
-73,449
-72,815
-72,247
-71,751
-71,327
-70,968
-70,661
-70,402
-70,188
-70,027
-69,926
-69,892
-69,926
-70,02
-70,147
-70,258
-70,303
-70,221
-69,967
-69,518
-68,861
-67,997
-66,941
-65,712
-64,325
-62,785
-61,084
-59,198
-57,134
-54,935
-52,7
-50,56
-48,639
-47,036
-45,842
-45,161
-45,038
-45,429
-46,288
-47,574
-49,29
-51,59
-54,64
-58,414
-62,994
-68,57
-74,774
-80,909
-86,43
-90,305
-92,661
-95,464
-98,186
-99,379
-97,221
-87,031
-71,039
-56,228
-47,274
-52,045
-70,267
-95,013
-124,665
-151,926
-170,364
-175,337
-154,485
-102,741
-21,226
85,694
206,234
331,044
450,492
552,428
623,985
651,418
629,281
559,703
451,718
322,362
185,723
57,44
-44,85
-114,384
-148,601
-153,724
-147,369
-139,164
-133,359
-130,243
-122,451
-108,438
-91,861
-75,748
-64,35
-59,252
-58,85
-61,648
-66,285
-71,082
-74,668
-76,343
-75,765
-73,125
-69,096
-64,234
-58,96
-53,865
-49,539
-46,289
-44,248
-43,338
-43,299
-43,949
-45,146
-46,721
-48,509
-50,361
-52,152
-53,783
-55,186
-56,303
-57,083
-57,491
-57,51
-57,14
-56,393
-55,3
-53,904
-52,24
-50,351
-48,274
-46,042
-43,701
-41,298
-38,881
-36,499
-34,186
-31,965
-29,854
-27,866
-26,002
-24,261
-22,632
-21,1
-19,652
-18,279
-16,97
-15,72
-14,516
-13,346
-12,198
-11,058
-9,917
-8,765
-7,592
-6,389
-5,149
-3,866
-2,536
-1,154
0,282
1,778
3,337
4,964
6,661
8,428
10,268
12,181
14,165
16,217
18,336
20,514
22,748
25,028
27,348
29,698
32,069
34,448
36,824
39,186
41,521
43,816
46,06
48,238
50,338
52,346
54,252
56,042
57,704
59,225
60,592
61,794
62,822
63,666
64,317
64,767
65,013
65,05
64,879
64,499
63,911
63,115
62,115
60,914
59,518
57,934
56,165
54,22
52,109
49,846
47,451
44,938
42,316
39,593
36,772
33,858
30,861
27,785
24,631
21,405
18,12
14,797
11,468
8,158
4,881
1,647
-1,549
-4,697
-7,779
-10,776
-13,667
-16,43
-19,048
-21,494
-23,725
-25,722
-27,483
-29,028
-30,406
-31,649
-32,773
-33,79
-34,702
-35,52
-36,268
-36,966
-37,63
-38,283
-38,946
-39,659
-40,486
-41,456
-42,577
-43,826
-45,148
-46,505
-47,879
-49,25
-50,607
-51,931
-53,199
-54,397
-55,525
-56,57
-57,514
-58,324
-58,946
-59,35
-59,533
-59,507
-59,31
-58,969
-58,494
-57,903
-57,213
-56,438
-55,592
-54,68
-53,692
-52,629
-51,5
-50,321
-49,121
-47,915
-46,708
-45,5
-44,28
-43,043
-41,79
-40,518
-39,224
-37,905
-36,566
-35,214
-33,865
-32,531
-31,219
-29,934
-28,678
-27,457
-26,276
-25,142
-24,061
-23,039
-22,081
-21,191
-20,375
-19,636
-18,976
-18,394
-17,887
-17,451
-17,085
-16,784
-16,547
-16,368
-16,244
-16,17
-16,143
-16,158
-16,21
-16,293
-16,4
-16,525
-16,662
-16,803
-16,942
-17,071
-17,184
-17,273
-17,332
-17,354
-17,335
-17,268
-17,148
-16,971
-16,735
-16,435
-16,071
-15,642
-15,146
-14,587
-13,966
-13,287
-12,553
-11,77
-10,943
-10,078
-9,181
-8,255
-7,307
-6,341
-5,362
-4,376
-3,39
-2,41
-1,444
-0,5
0,418
1,303
2,149
2,955
3,719
4,441
5,116
5,735
6,289
6,772
7,175
7,493
7,724
7,872
7,945
7,962
7,94
7,898
7,851
7,807
7,776
7,77
7,807
7,913
8,114
8,434
8,894
9,516
10,308
11,253
12,312
13,423
14,528
15,586
16,558
17,39
18,02
18,38
18,394
18,008
17,145
15,651
13,449
10,574
7,18
3,644
0,387
-2,277
-3,981
-4,232
-2,808
0,17
4,24
8,288
11,149
12,076
10,272
4,898
-4,225
-16,46
-30,399
-43,423
-52,499
-55,045
-48,247
-28,879
4,45
50,183
105,877
167,767
233,858
307,909
391,804
481,039
566,184
629,218
651,131
625,083
550,954
436,438
301,105
161,431
35,438
-56,237
-108,36
-123,014
-110,436
-91,168
-75,791
-67,325
-64,494
-59,647
-50,783
-40,41
-30,899
-25,772
-25,824
-29,245
-34,438
-39,594
-43,12
-44,465
-43,469
-40,206
-35,155
-28,869
-21,852
-14,692
-7,998
-2,087
2,945
7,122
10,629
13,622
16,196
18,48
20,618
22,707
24,791
26,882
28,926
30,885
32,766
34,567
36,285
37,897
39,345
40,568
41,511
42,126
42,368
42,2
41,57
40,45
38,846
36,797
34,382
31,688
28,78
25,721
22,568
19,397
16,307
13,399
10,768
8,496
6,657
5,329
4,6
4,535
5,164
6,486
8,457
11,033
14,175
17,84
21,986
26,549
31,449
36,602
41,923
47,336
52,772
58,155
63,399
68,434
73,208
77,693
81,882
85,768
89,346
92,613
95,575
98,25
100,666
102,856
104,856
106,694
108,393
109,976
111,47
112,895
114,262
115,573
116,82
117,997
119,099
120,119
121,046
121,865
122,557
123,102
123,478
123,668
123,662
123,45
123,024
122,382
121,524
120,453
119,177
117,705
116,042
114,196
112,174
109,986
107,643
105,156
102,538
99,8
96,953
94,006
90,97
87,853
84,664
81,41
78,098
74,735
71,328
67,888
64,421
60,938
57,445
53,953
50,468
47
43,556
40,143
36,767
33,434
30,151
26,924
23,757
20,657
17,628
14,674
11,799
9,006
6,299
3,68
1,151
-1,285
-3,628
-5,874
-8,024
-10,075
-12,026
-13,877
-15,627
-17,276
-18,822
-20,266
-21,608
-22,848
-23,988
-25,027
-25,967
-26,81
-27,558
-28,212
-28,774
-29,247
-29,633
-29,937
-30,16
-30,306
-30,379
-30,382
-30,32
-30,196
-30,015
-29,779
-29,494
-29,164
-28,792
-28,383
-27,941
-27,471
-26,977
-26,463
-25,934
-25,395
-24,852
-24,309
-23,771
-23,245
-22,734
-22,245
-21,781
-21,348
-20,949
-20,589
-20,27
-19,995
-19,766
-19,585
-19,453
-19,37
-19,336
-19,351
-19,414
-19,523
-19,679
-19,88
-20,125
-20,412
-20,737
-21,097
-21,488
-21,904
-22,342
-22,794
-23,256
-23,718
-24,174
-24,619
-25,045
-25,444
-25,804
-26,111
-26,354
-26,528
-26,629
-26,655
-26,609
-26,494
-26,321
-26,108
-25,871
-25,622
-25,37
-25,113
-24,855
-24,605
-24,372
-24,17
-24,007
-23,874
-23,763
-23,663
-23,551
-23,394
-23,141
-22,721
-22,079
-21,177
-19,991
-18,518
-16,752
-14,691
-12,335
-9,688
-6,763
-3,584
-0,18
3,42
7,16
10,962
14,719
18,293
21,574
24,482
26,956
28,963
30,471
31,462
31,923
31,856
31,256
30,097
28,35
25,987
23,02
19,511
15,544
11,211
6,571
1,645
-3,557
-9,012
-14,734
-20,826
-27,319
-34,144
-41,069
-47,594
-53,193
-57,486
-60,07
-60,501
-58,65
-54,75
-49,479
-44,245
-40,482
-39,231
-41,539
-48,215
-59,258
-73,8
-89,889
-104,238
-113,439
-114,382
-103,571
-77,979
-35,897
21,726
90,825
166,284
243,859
322,76
403,172
481,186
547,753
588,703
591,756
552,239
475,185
373,931
260,372
147,058
45,065
-40,266
-100,182
-132,969
-146,125
-144,75
-137,729
-130,511
-120,244
-107,294
-92,976
-78,612
-68,27
-63,731
-64,116
-68,198
-74,276
-80,473
-85,355
-88,133
-88,336
-85,991
-81,686
-76,031
-69,601
-63,128
-57,302
-52,489
-48,889
-46,504
-45,147
-44,69
-45,023
-45,976
-47,38
-49,098
-51,025
-53,077
-55,194
-57,286
-59,236
-60,961
-62,405
-63,54
-64,36
-64,863
-65,055
-64,953
-64,589
-63,997
-63,206
-62,249
-61,152
-59,95
-58,682
-57,39
-56,115
-54,884
-53,713
-52,607
-51,562
-50,572
-49,624
-48,7
-47,78
-46,845
-45,881
-44,875
-43,815
-42,689
-41,482
-40,182
-38,775
-37,254
-35,61
-33,84
-31,941
-29,911
-27,754
-25,474
-23,074
-20,561
-17,94
-15,215
-12,392
-9,478
-6,482
-3,41
-0,272
2,921
6,158
9,426
12,713
16,005
19,288
22,547
25,769
28,937
32,037
35,055
37,975
40,781
43,461
46
48,385
50,603
52,644
54,496
56,15
57,599
58,835
59,853
60,648
61,216
61,555
61,664
61,542
61,19
60,611
59,807
58,783
57,542
56,092
54,438
52,589
50,551
48,335
45,948
43,402
40,706
37,87
34,906
31,826
28,64
25,361
22
18,57
15,081
11,545
7,974
4,378
0,768
-2,846
-6,455
-10,049
-13,618
-17,155
-20,651
-24,098
-27,49
-30,82
-34,081
-37,269
-40,376
-43,399
-46,332
-49,171
-51,911
-54,548
-57,078
-59,498
-61,804
-63,993
-66,063
-68,011
-69,835
-71,535
-73,108
-74,554
-75,872
-77,061
-78,123
-79,058
-79,866
-80,549
-81,11
-81,549
-81,871
-82,077
-82,171
-82,157
-82,039
-81,819
-81,504
-81,096
-80,602
-80,026
-79,374
-78,652
-77,867
-77,026
-76,134
-75,2
-74,23
-73,232
-72,214
-71,183
-70,146
-69,112
-68,088
-67,082
-66,101
-65,153
-64,245
-63,381
-62,568
-61,812
-61,116
-60,484
-59,92
-59,426
-59,004
-58,657
-58,386
-58,191
-58,073
-58,032
-58,066
-58,175
-58,355
-58,605
-58,921
-59,299
-59,737
-60,228
-60,769
-61,353
-61,976
-62,632
-63,311
-64,008
-64,714
-65,419
-66,115
-66,794
-67,448
-68,068
-68,648
-69,182
-69,664
-70,09
-70,455
-70,754
-70,982
-71,136
-71,211
-71,203
-71,108
-70,923
-70,646
-70,274
-69,809
-69,253
-68,605
-67,867
-67,038
-66,12
-65,118
-64,042
-62,898
-61,699
-60,457
-59,188
-57,917
-56,665
-55,453
-54,3
-53,219
-52,219
-51,31
-50,497
-49,785
-49,171
-48,639
-48,173
-47,756
-47,369
-46,994
-46,603
-46,157
-45,619
-44,952
-44,122
-43,097
-41,852
-40,369
-38,64
-36,665
-34,461
-32,062
-29,505
-26,83
-24,073
-21,266
-18,455
-15,694
-13,048
-10,597
-8,431
-6,652
-5,343
-4,558
-4,345
-4,759
-5,843
-7,632
-10,16
-13,41
-17,409
-22,287
-28,045
-34,55
-41,531
-48,432
-54,682
-59,875
-63,51
-64,993
-64,156
-61,227
-56,87
-52,58
-49,819
-49,569
-52,954
-60,891
-73,247
-88,936
-105,961
-120,872
-129,895
-129,779
-116,778
-87,226
-40,7
20,155
92,389
171,103
254,927
347,424
445,305
540,814
620,651
664,302
661,077
610,288
518,11
400,509
272,226
146,729
39,351
-40,046
-86,667
-103,297
-102,593
-96,265
-91,19
-89,057
-85,002
-76,33
-64,876
-53,506
-46,099
-44,37
-47,082
-52,538
-59,14
-65,317
-69,841
-72,072
-71,726
-68,991
-64,52
-58,955
-52,849
-46,837
-41,532
-37,265
-34,187
-32,27
-31,317
-31,178
-31,734
-32,825
-34,283
-35,971
-37,767
-39,575
-41,323
-42,918
-44,252
-45,251
-45,863
-46,063
-45,856
-45,251
-44,264
-42,924
-41,272
-39,349
-37,195
-34,855
-32,368
-29,78
-27,139
-24,493
-21,889
-19,358
-16,924
-14,597
-12,382
-10,275
-8,273
-6,363
-4,534
-2,773
-1,07
0,581
2,19
3,765
5,318
6,859
8,399
9,945
11,505
13,084
14,687
16,317
17,977
19,666
21,386
23,137
24,921
26,74
28,595
30,487
32,416
34,381
36,382
38,417
40,482
42,575
44,69
46,823
48,967
51,118
53,267
55,408
57,533
59,632
61,698
63,72
65,691
67,6
69,437
71,195
72,863
74,433
75,897
77,247
78,476
79,576
80,542
81,368
82,048
82,578
82,955
83,176
83,238
83,14
82,881
82,46
81,878
81,138
80,24
79,189
77,987
76,639
75,151
73,529
71,778
69,907
67,924
65,837
63,655
61,386
59,042
56,63
54,162
51,647
49,094
46,513
43,915
41,308
38,702
36,105
33,526
30,974
28,455
25,977
23,548
21,174
18,861
16,614
14,44
12,342
10,326
8,394
6,55
4,797
3,135
1,567
0,091
-1,291
-2,581
-3,78
-4,891
-5,915
-6,856
-7,717
-8,501
-9,213
-9,857
-10,436
-10,957
-11,423
-11,839
-12,209
-12,538
-12,83
-13,089
-13,32
-13,525
-13,71
-13,876
-14,028
-14,169
-14,302
-14,428
-14,55
-14,669
-14,786
-14,902
-15,017
-15,13
-15,24
-15,347
-15,449
-15,545
-15,631
-15,706
-15,768
-15,813
-15,84
-15,845
-15,825
-15,777
-15,699
-15,589
-15,444
-15,262
-15,042
-14,781
-14,479
-14,134
-13,745
-13,312
-12,834
-12,311
-11,743
-11,132
-10,478
-9,784
-9,051
-8,283
-7,483
-6,653
-5,798
-4,921
-4,026
-3,117
-2,197
-1,271
-0,341
0,589
1,516
2,438
3,351
4,254
5,145
6,021
6,88
7,72
8,541
9,341
10,122
10,885
11,631
12,36
13,076
13,779
14,474
15,164
15,849
16,532
17,219
17,915
18,63
19,371
20,14
20,936
21,757
22,597
23,45
24,302
25,135
25,934
26,682
27,371
28
28,563
29,051
29,451
29,742
29,916
29,978
29,936
29,804
29,606
29,373
29,151
29,005
28,988
29,138
29,479
30,012
30,746
31,693
32,871
34,308
36,015
37,978
40,178
42,587
45,157
47,828
50,51
53,081
55,444
57,525
59,267
60,652
61,651
62,219
62,303
61,815
60,68
58,849
56,282
52,972
48,922
44,135
38,645
32,526
25,823
18,601
10,88
2,566
-6,314
-15,594
-24,977
-33,908
-41,821
-48,32
-52,931
-55,068
-54,524
-51,464
-46,428
-40,739
-35,732
-32,3
-31,499
-34,28
-40,666
-49,838
-60,243
-68,999
-72,764
-68,603
-53,121
-22,79
23,118
82,286
152,123
228,461
309,23
397,658
492,606
586,878
669,51
722,041
728,465
685,568
596,447
471,234
329,085
185,151
55,014
-43,076
-103,758
-128,155
-124,434
-110,47
-96,266
-85,528
-78,245
-68,907
-56,898
-45,033
-35,575
-31,583
-33,325
-38,684
-45,988
-53,202
-58,457
-61,107
-60,905
-57,959
-52,957
-46,638
-39,653
-32,777
-26,747
-21,927
-18,484
-16,426
-15,587
-15,867
-17,172
-19,335
-22,175
-25,539
-29,293
-33,312
-37,477
-41,615
-45,555
-49,174
-52,385
-55,151
-57,444
-59,234
-60,496
-61,201
-61,354
-60,974
-60,085
-58,717
-56,917
-54,745
-52,289
-49,66
-46,948
-44,221
-41,522
-38,874
-36,295
-33,805
-31,415
-29,132
-26,96
-24,896
-22,944
-21,11
-19,388
-17,769
-16,228
-14,733
-13,257
-11,785
-10,305
-8,812
-7,301
-5,768
-4,213
-2,641
-1,053
0,55
2,172
3,817
5,49
7,189
8,915
10,664
12,433
14,222
16,026
17,844
19,673
21,508
23,348
25,192
27,034
28,871
30,696
32,502
34,28
36,022
37,721
39,366
40,949
42,46
43,892
45,235
46,481
47,623
48,652
49,561
50,342
50,989
51,495
51,854
52,06
52,107
51,992
51,712
51,262
50,642
49,851
48,888
47,757
46,458
44,996
43,375
41,6
39,678
37,617
35,424
33,11
30,683
28,155
25,535
22,836
20,069
17,246
14,379
11,478
8,557
5,625
2,696
-0,221
-3,113
-5,972
-8,786
-11,545
-14,241
-16,865
-19,408
-21,863
-24,223
-26,483
-28,637
-30,68
-32,611
-34,427
-36,125
-37,706
-39,17
-40,519
-41,753
-42,876
-43,89
-44,8
-45,611
-46,325
-46,95
-47,49
-47,95
-48,337
-48,655
-48,911
-49,11
-49,257
-49,358
-49,418
-49,441
-49,433
-49,398
-49,339
-49,262
-49,168
-49,062
-48,945
-48,821
-48,692
-48,558
-48,421
-48,281
-48,14
-47,998
-47,854
-47,708
-47,558
-47,406
-47,249
-47,086
-46,918
-46,742
-46,558
-46,365
-46,163
-45,953
-45,732
-45,503
-45,265
-45,019
-44,768
-44,511
-44,252
-43,993
-43,735
-43,482
-43,238
-43,004
-42,783
-42,579
-42,394
-42,232
-42,095
-41,983
-41,9
-41,847
-41,825
-41,836
-41,882
-41,964
-42,082
-42,239
-42,436
-42,671
-42,945
-43,253
-43,594
-43,963
-44,357
-44,77
-45,196
-45,627
-46,055
-46,477
-46,884
-47,267
-47,614
-47,909
-48,142
-48,305
-48,396
-48,411
-48,354
-48,227
-48,042
-47,819
-47,575
-47,323
-47,07
-46,816
-46,565
-46,326
-46,11
-45,928
-45,78
-45,654
-45,539
-45,419
-45,271
-45,057
-44,724
-44,201
-43,432
-42,38
-41,025
-39,361
-37,388
-35,101
-32,504
-29,618
-26,483
-23,152
-19,68
-16,122
-12,545
-9,041
-5,733
-2,756
-0,223
1,787
3,223
4,049
4,245
3,797
2,71
1,018
-1,218
-3,941
-7,094
-10,639
-14,551
-18,772
-23,208
-27,749
-32,303
-36,832
-41,353
-45,884
-50,439
-55,028
-59,7
-64,618
-69,944
-75,707
-81,733
-87,668
-93,116
-97,766
-101,303
-103,29
-103,354
-101,457
-98,197
-94,676
-91,973
-91,33
-94,033
-101,002
-113,095
-129,291
-145,809
-160,242
-171,065
-177,642
-182,256
-180,826
-163,753
-124,288
-56,918
34,598
136,528
239,918
341,463
439,581
534,762
619,252
672,359
676,017
620,726
506,552
352,128
183,186
22,073
-108,13
-194,781
-238,759
-246,331
-233,133
-215,527
-199,998
-188,689
-178,573
-164,745
-148,444
-132,655
-120,027
-113,483
-112,831
-116,107
-121,837
-127,941
-132,481
-134,783
-134,602
-132,1
-128,005
-122,96
-117,454
-112,154
-107,713
-104,432
-102,402
-101,498
-101,408
-101,908
-102,842
-104,047
-105,377
-106,7
-107,9
-108,88
-109,567
-109,914
-109,884
-109,454
-108,631
-107,443
-105,935
-104,203
-102,336
-100,386
-98,395
-96,363
-94,268
-92,126
-89,96
-87,796
-85,673
-83,605
-81,593
-79,648
-77,768
-75,931
-74,107
-72,233
-70,249
-68,132
-65,876
-63,497
-61,03
-58,488
-55,875
-53,202
-50,477
-47,704
-44,892
-42,041
-39,151
-36,245
-33,353
-30,506
-27,734
-25,043
-22,42
-19,85
-17,307
-14,765
-12,216
-9,638
-7,016
-4,344
-1,612
1,19
4,077
7,082
10,251
13,607
17,163
20,917
24,839
28,895
33,044
37,224
41,39
45,499
49,507
53,388
57,116
60,646
63,932
66,912
69,508
71,669
73,362
74,565
75,29
75,558
75,406
74,9
74,095
73,032
71,751
70,273
68,619
66,824
64,925
62,968
61,015
59,111
57,29
55,583
53,997
52,525
51,148
49,826
48,521
47,214
45,889
44,544
43,182
41,8
40,396
38,973
37,518
36,027
34,496
32,92
31,304
29,661
28,009
26,376
24,791
23,271
21,831
20,48
19,223
18,064
17,003
16,036
15,164
14,387
13,704
13,119
12,631
12,237
11,934
11,715
11,573
11,504
11,5
11,558
11,673
11,841
12,059
12,324
12,634
12,985
13,373
13,793
14,24
14,708
15,193
15,69
16,191
16,694
17,193
17,684
18,163
18,628
19,074
19,5
19,904
20,285
20,642
20,975
21,282
21,564
21,82
22,05
22,255
22,433
22,584
22,71
22,81
22,886
22,94
22,975
22,992
22,996
22,991
22,98
22,966
22,952
22,938
22,925
22,917
22,912
22,914
22,924
22,945
22,979
23,032
23,106
23,201
23,314
23,438
23,569
23,707
23,852
24,009
24,186
24,391
24,645
24,967
25,37
25,863
26,443
27,098
27,816
28,589
29,404
30,262
31,159
32,076
33,004
33,924
34,803
35,601
36,255
36,687
36,842
36,683
36,191
35,378
34,261
32,859
31,21
29,341
27,283
25,085
22,787
20,433
18,099
15,872
13,864
12,221
11,05
10,426
10,404
10,984
12,158
13,905
16,168
18,895
22,029
25,493
29,215
33,116
37,086
41,003
44,735
48,116
51,008
53,29
54,854
55,662
55,718
55,05
53,696
51,667
48,943
45,568
41,673
37,325
32,496
27,022
20,711
13,571
5,864
-2,141
-10,441
-18,983
-27,422
-34,982
-40,56
-43,428
-43,642
-41,597
-37,299
-30,807
-22,709
-14,375
-8,113
-5,915
-8,435
-15,582
-27,557
-44,352
-65,091
-87,67
-108,292
-122,934
-128,679
-123,242
-104,03
-68,41
-16,505
48,442
122,073
198,612
277,329
363,035
453,841
544,194
621,584
663,091
656,997
600,562
497,086
365,32
222,506
83,677
-31,852
-114,088
-161,265
-175,472
-168,647
-152,981
-130,96
-106,222
-82,037
-59,385
-47,147
-48,515
-57,443
-70,039
-78,978
-80,637
-79,893
-78,925
-78,813
-80,061
-79,918
-77,289
-72,954
-67,464
-61,715
-56,42
-51,758
-47,839
-44,808
-42,613
-41,037
-39,944
-39,261
-38,908
-38,86
-39,112
-39,609
-40,331
-41,298
-42,482
-43,866
-45,458
-47,249
-49,256
-51,504
-53,999
-56,746
-59,753
-62,998
-66,45
-70,059
-73,748
-77,458
-81,141
-84,742
-88,228
-91,565
-94,709
-97,629
-100,3
-102,69
-104,784
-106,571
-108,035
-109,184
-110,039
-110,628
-111,006
-111,212
-111,273
-111,223
-111,078
-110,852
-110,559
-110,204
-109,78
-109,289
-108,726
-108,085
-107,367
-106,564
-105,662
-104,649
-103,501
-102,205
-100,755
-99,145
-97,375
-95,452
-93,38
-91,173
-88,848
-86,423
-83,912
-81,333
-78,698
-76,025
-73,33
-70,633
-67,951
-65,302
-62,702
-60,168
-57,714
-55,355
-53,105
-50,976
-48,978
-47,122
-45,419
-43,877
-42,509
-41,32
-40,32
-39,514
-38,909
-38,508
-38,314
-38,33
-38,556
-38,99
-39,631
-40,475
-41,52
-42,76
-44,189
-45,801
-47,589
-49,544
-51,659
-53,923
-56,328
-58,863
-61,516
-64,276
-67,132
-70,071
-73,081
-76,147
-79,258
-82,401
-85,561
-88,727
-91,886
-95,025
-98,131
-101,193
-104,2
-107,14
-110,003
-112,779
-115,46
-118,036
-120,5
-122,845
-125,064
-127,151
-129,101
-130,91
-132,572
-134,086
-135,447
-136,655
-137,709
-138,607
-139,351
-139,941
-140,382
-140,674
-140,823
-140,834
-140,711
-140,46
-140,089
-139,605
-139,014
-138,325
-137,546
-136,685
-135,752
-134,753
-133,697
-132,593
-131,449
-130,273
-129,072
-127,853
-126,624
-125,391
-124,16
-122,938
-121,73
-120,539
-119,371
-118,229
-117,117
-116,036
-114,989
-113,975
-112,995
-112,048
-111,133
-110,246
-109,383
-108,541
-107,715
-106,899
-106,087
-105,272
-104,449
-103,61
-102,748
-101,858
-100,933
-99,967
-98,951
-97,883
-96,755
-95,563
-94,304
-92,973
-91,568
-90,088
-88,533
-86,905
-85,206
-83,437
-81,602
-79,703
-77,745
-75,735
-73,678
-71,579
-69,446
-67,288
-65,115
-62,941
-60,773
-58,621
-56,491
-54,391
-52,328
-50,309
-48,34
-46,431
-44,588
-42,819
-41,137
-39,55
-38,067
-36,699
-35,444
-34,302
-33,271
-32,343
-31,514
-30,788
-30,156
-29,616
-29,16
-28,76
-28,402
-28,077
-27,773
-27,494
-27,217
-26,881
-26,472
-25,998
-25,479
-24,982
-24,495
-23,908
-23,28
-22,813
-22,698
-23,206
-24,377
-25,958
-27,993
-30,686
-33,842
-36,973
-39,303
-39,755
-38,004
-34,463
-29,109
-21,887
-13,367
-4,56
2,614
5,741
3,731
-3,443
-15,98
-33,59
-55,076
-78,387
-99,816
-114,993
-120,723
-114,31
-93,198
-55,926
-3,392
60,803
131,617
204,526
279,119
356,404
433,012
500,376
544,5
552,653
521,182
455,92
368,072
268,058
164,362
64,358
-22,165
-83,092
-111,767
-110,551
-90,635
-65,974
-45,809
-31,919
-20,346
-8,354
3,961
14,72
20,648
20,982
17,261
10,982
4,112
-1,692
-5,936
-8,319
-8,757
-7,73
-5,742
-3,201
-0,663
1,357
2,641
3,108
2,804
1,957
0,749
-0,676
-2,133
-3,437
-4,427
-4,975
-4,988
-4,429
-3,271
-1,49
0,922
3,956
7,588
11,768
16,424
21,477
26,848
32,447
38,191
43,98
49,695
55,23
60,492
65,405
69,923
74,012
77,636
80,779
83,431
85,593
87,291
88,555
89,41
89,894
90,04
89,895
89,529
89,001
88,367
87,685
86,999
86,359
85,83
85,472
85,346
85,525
86,067
87,026
88,461
90,413
92,912
95,983
99,628
103,845
108,625
113,936
119,733
125,968
132,567
139,453
146,536
153,697
160,822
167,807
174,548
180,97
187,018
192,636
197,786
202,451
206,631
210,36
213,691
216,666
219,34
221,767
224,02
226,207
228,425
230,753
233,246
235,918
238,759
241,758
244,88
248,051
251,16
254,054
256,57
258,561
259,892
260,429
260,008
258,456
255,615
251,351
245,595
238,355
229,664
219,572
208,152
195,461
181,593
166,752
151,124
134,854
118,121
101,105
