Nom
Date de naissance
Date d’enregistrement,2022-02-27 15:57:38 +0100
Classification,Rythme sinusal
Symptômes,
Version du logiciel,1.52
Appareil,"Watch5,1"
Fréquence d’échantillonnage,511,242 hertz


Dérivation,Dérivation DI
Unité,µV

247,612
338,256
343,079
321,079
315,491
310,744
299,203
294,687
297,831
300,067
298,735
294,457
288,845
284,071
280,625
277,628
274,042
269,278
263,169
255,602
246,645
236,449
225,263
213,63
202,103
190,873
179,948
169,282
158,617
147,619
136,048
123,762
110,758
97,186
82,673
66,275
47,691
27,804
9,935
-1,299
-3,264
3,029
10,806
10,777
-4,482
-37,17
-81,211
-126,76
-162,047
-178,582
-174,815
-152,088
-118,829
-85,413
-60,198
-51,937
-61,522
-85,219
-118,021
-152,904
-186,421
-214,761
-232,333
-232,197
-205,682
-150,058
-68,021
33,055
140,423
243,294
330,375
389,247
410,918
387,984
319,554
212,158
77,138
-69,188
-210,679
-331,571
-420,6
-475,764
-501,129
-508,382
-510,294
-512,443
-515,853
-516,805
-510,637
-498,255
-483,493
-470,365
-462,117
-459,226
-460,742
-466,301
-475,572
-487,658
-501,039
-514,019
-525,668
-535,796
-544,515
-551,688
-556,824
-559,858
-561,445
-562,564
-563,882
-565,606
-567,648
-569,964
-572,786
-576,277
-580,289
-584,435
-588,359
-591,904
-595,094
-598,03
-600,731
-603,18
-605,409
-607,519
-609,644
-611,875
-614,242
-616,716
-619,247
-621,791
-624,305
-626,753
-629,092
-631,271
-633,236
-634,938
-636,34
-637,399
-638,077
-638,32
-638,061
-637,255
-635,882
-633,948
-631,486
-628,546
-625,191
-621,493
-617,535
-613,391
-609,124
-604,788
-600,418
-596,05
-591,724
-587,482
-583,376
-579,447
-575,717
-572,2
-568,899
-565,801
-562,881
-560,102
-557,413
-554,776
-552,164
-549,561
-546,962
-544,362
-541,755
-539,135
-536,497
-533,836
-531,149
-528,436
-525,697
-522,938
-520,174
-517,423
-514,713
-512,068
-509,5
-507,022
-504,641
-502,363
-500,195
-498,138
-496,194
-494,366
-492,658
-491,074
-489,621
-488,304
-487,125
-486,084
-485,181
-484,412
-483,779
-483,28
-482,914
-482,679
-482,574
-482,597
-482,747
-483,022
-483,418
-483,927
-484,545
-485,261
-486,069
-486,959
-487,921
-488,945
-490,019
-491,133
-492,276
-493,438
-494,605
-495,767
-496,911
-498,026
-499,099
-500,119
-501,073
-501,949
-502,737
-503,425
-504,003
-504,46
-504,786
-504,972
-505,008
-504,886
-504,599
-504,141
-503,505
-502,688
-501,686
-500,497
-499,119
-497,552
-495,797
-493,856
-491,731
-489,426
-486,945
-484,294
-481,48
-478,508
-475,387
-472,125
-468,729
-465,209
-461,574
-457,831
-453,989
-450,055
-446,039
-441,948
-437,792
-433,578
-429,316
-425,015
-420,684
-416,333
-411,972
-407,608
-403,249
-398,9
-394,565
-390,249
-385,955
-381,685
-377,443
-373,23
-369,049
-364,901
-360,79
-356,717
-352,678
-348,672
-344,688
-340,722
-336,771
-332,832
-328,908
-325,003
-321,125
-317,289
-313,511
-309,799
-306,16
-302,593
-299,084
-295,624
-292,2
-288,801
-285,427
-282,073
-278,728
-275,387
-272,036
-268,652
-265,205
-261,648
-257,919
-253,976
-249,789
-245,341
-240,648
-235,731
-230,62
-225,361
-219,986
-214,527
-209,027
-203,523
-198,042
-192,635
-187,359
-182,29
-177,541
-173,2
-169,336
-166,006
-163,22
-160,969
-159,225
-157,929
-157,014
-156,418
-156,061
-155,875
-155,808
-155,797
-155,776
-155,633
-155,224
-154,432
-153,122
-151,306
-149,004
-146,061
-142,484
-137,855
-131,875
-124,91
-117,072
-110,011
-103,494
-98,448
-103,191
-101,203
-63,98
-29,372
-44,715
-67,166
-53,366
-31,311
-22,32
-16,488
-10,588
-6,303
-2,53
0,884
3,875
6,231
7,607
8,06
7,61
6,247
4,008
0,893
-3,043
-7,684
-12,976
-18,934
-25,5
-32,54
-39,716
-46,42
-52,134
-56,507
-59,083
-59,455
-57,569
-53,532
-48,115
-42,885
-39,05
-37,54
-39,525
-45,478
-54,894
-67,215
-79,617
-87,786
-89,494
-81,652
-62,627
-33,659
6,432
57,682
119,291
192,801
277,465
370,204
465,259
550,667
611,103
632,049
603,078
522,945
399,989
250,425
97,005
-37,912
-136,449
-189,403
-201,841
-185,871
-155,182
-121,087
-84,994
-46,653
-8,128
28,437
55,997
71,486
77,866
77,207
74,678
72,994
70,468
67,697
64,631
61,35
60,264
62,652
68,454
77,378
88,058
98,704
108,536
117,241
124,49
130,178
134,25
136,638
137,629
137,825
137,584
137,099
136,506
135,764
134,941
134,242
133,785
133,638
133,86
134,453
135,441
136,934
138,88
140,998
143,218
145,64
148,219
151,134
153,986
155,463
155,887
156,606
159,919
169,933
186,968
207,985
228,094
239,517
239,242
228,866
213,411
202,212
200,669
210,497
229,107
248,745
264,24
272,481
273,589
271,888
270,118
269,89
271,674
273,965
276,08
278,048
279,822
281,685
283,697
285,615
287,357
288,938
290,351
291,615
292,759
293,795
294,745
295,645
296,491
297,257
297,931
298,51
298,993
299,383
299,681
299,886
300,001
300,032
299,98
299,847
299,628
299,322
298,93
298,454
297,896
297,258
296,542
295,747
294,873
293,919
292,881
291,755
290,538
289,223
287,808
286,289
284,664
282,931
281,088
279,134
277,07
274,894
272,608
270,214
267,711
265,102
262,39
259,578
256,669
253,669
250,582
247,412
244,168
240,854
237,478
234,046
230,567
227,048
223,497
219,921
216,33
212,732
209,136
205,55
201,983
198,446
194,946
191,492
188,093
184,757
181,492
178,304
175,199
172,184
169,262
166,438
163,715
161,097
158,586
156,184
153,891
151,708
149,634
147,669
145,809
144,054
142,399
140,842
139,378
138,004
136,716
135,511
134,383
133,33
132,348
131,433
130,58
129,785
129,042
128,348
127,695
127,079
126,493
125,932
125,393
124,871
124,365
123,873
123,394
122,925
122,469
122,021
121,582
121,15
120,72
120,293
119,869
119,45
119,041
118,645
118,263
117,896
117,542
117,195
116,846
116,482
116,086
115,647
115,158
114,616
114,027
113,395
112,726
112,028
111,301
110,545
109,764
108,957
108,128
107,294
106,473
105,699
105,016
104,454
104,039
103,784
103,686
103,735
103,912
104,184
104,53
104,925
105,346
105,777
106,189
106,545
106,8
106,887
106,727
106,251
105,393
104,101
102,348
100,116
97,404
94,235
90,634
86,632
82,268
77,578
72,612
67,438
62,126
56,778
51,505
46,413
41,617
37,227
33,333
30,024
27,379
25,444
24,259
23,846
24,205
25,326
27,181
29,723
32,902
36,641
40,856
45,467
50,373
55,467
60,647
65,798
70,8
75,554
79,963
83,942
87,443
90,429
92,87
94,739
96
96,617
96,575
95,87
94,501
92,455
89,724
86,315
82,264
77,646
72,495
66,748
60,404
53,58
46,494
39,574
33,236
27,718
23,384
20,796
20,225
21,567
24,396
27,672
30,272
31,548
30,673
26,391
19,02
10,554
2,901
-0,845
-0,061
2,011
5,549
13,459
31,914
70,855
134,351
219,676
319,922
426,017
531,382
630,083
715,137
775,085
796,002
769,994
695,294
580,816
444,486
304,052
177,983
80,533
16,894
-14,02
-19,801
-12,883
-1,775
10,68
22,197
34,408
47,046
55,251
59,434
59,783
56,491
53,184
49,382
44,379
39,539
35,065
32,282
32,357
34,857
39,263
44,946
51,185
57,456
63,283
68,329
72,457
75,72
78,263
80,187
81,568
82,488
83,014
83,199
83,079
82,673
81,999
81,114
80,092
79,008
77,919
76,872
75,909
75,076
74,419
73,967
73,727
73,707
73,914
74,368
75,084
76,06
77,279
78,716
80,34
82,119
84,03
86,035
88,098
90,177
92,225
94,213
96,123
97,94
99,648
101,227
102,66
103,94
105,068
106,048
106,882
107,573
108,124
108,547
108,859
109,078
109,226
109,315
109,355
109,353
109,315
109,248
109,157
109,043
108,902
108,733
108,537
108,314
108,066
107,789
107,478
107,128
106,732
106,287
105,787
105,226
104,599
103,902
103,131
102,283
101,355
100,344
99,245
98,057
96,773
95,393
93,913
92,332
90,649
88,862
86,971
84,979
82,886
80,693
78,404
76,021
73,547
70,986
68,342
65,62
62,826
59,966
57,046
54,075
51,06
48,01
44,933
41,837
38,733
35,629
32,533
29,455
26,403
23,386
20,411
17,486
14,619
11,814
9,077
6,414
3,826
1,318
-1,108
-3,449
-5,705
-7,873
-9,951
-11,939
-13,835
-15,64
-17,354
-18,979
-20,515
-21,967
-23,337
-24,63
-25,851
-27,002
-28,088
-29,112
-30,076
-30,984
-31,839
-32,644
-33,4
-34,11
-34,778
-35,408
-36,004
-36,567
-37,093
-37,583
-38,037
-38,46
-38,856
-39,229
-39,585
-39,934
-40,293
-40,677
-41,1
-41,573
-42,098
-42,672
-43,298
-43,976
-44,708
-45,488
-46,3
-47,124
-47,946
-48,749
-49,517
-50,225
-50,827
-51,284
-51,563
-51,636
-51,499
-51,147
-50,572
-49,779
-48,782
-47,609
-46,313
-44,949
-43,561
-42,197
-40,902
-39,731
-38,774
-38,107
-37,795
-37,899
-38,457
-39,503
-41,077
-43,192
-45,836
-48,98
-52,562
-56,514
-60,781
-65,295
-69,987
-74,781
-79,569
-84,25
-88,733
-92,92
-96,73
-100,091
-102,926
-105,188
-106,857
-107,927
-108,415
-108,351
-107,762
-106,684
-105,165
-103,249
-100,995
-98,468
-95,73
-92,856
-89,913
-86,954
-84,026
-81,158
-78,366
-75,663
-73,053
-70,523
-68,066
-65,666
-63,309
-60,996
-58,731
-56,518
-54,354
-52,228
-50,131
-48,064
-46,046
-44,103
-42,259
-40,535
-38,955
-37,55
-36,359
-35,419
-34,748
-34,349
-34,206
-34,299
-34,617
-35,167
-35,979
-37,088
-38,521
-40,288
-42,398
-44,876
-47,755
-51,06
-54,8
-58,967
-63,545
-68,593
-74,254
-80,579
-87,53
-94,947
-102,437
-109,613
-116,198
-121,739
-125,653
-127,689
-127,794
-126,16
-123,822
-121,876
-121,034
-122,604
-127,161
-133,328
-139,844
-145,275
-148,777
-153,012
-159,705
-166,106
-165,877
-148,201
-103,437
-29,866
68,308
181,778
299,433
413,359
514,466
593,139
639,778
643,03
598,889
509,526
382,741
236,304
87,844
-44,219
-142,47
-201,193
-220,284
-208,25
-181,552
-152,15
-131,115
-124,043
-127,624
-138,356
-149,737
-156,01
-157,37
-155,52
-153,961
-155,642
-159,95
-164,707
-167,61
-167,469
-164,477
-159,415
-153,12
-146,066
-138,729
-131,772
-125,595
-120,386
-116,2
-112,914
-110,496
-108,996
-108,363
-108,478
-109,218
-110,466
-112,149
-114,222
-116,602
-119,174
-121,827
-124,462
-127,025
-129,491
-131,819
-133,963
-135,855
-137,415
-138,597
-139,381
-139,761
-139,749
-139,355
-138,595
-137,502
-136,12
-134,495
-132,662
-130,641
-128,438
-126,072
-123,567
-120,966
-118,321
-115,667
-113,027
-110,42
-107,856
-105,345
-102,894
-100,498
-98,142
-95,814
-93,507
-91,219
-88,952
-86,702
-84,461
-82,217
-79,951
-77,654
-75,32
-72,945
-70,525
-68,06
-65,551
-63,005
-60,433
-57,845
-55,247
-52,647
-50,05
-47,466
-44,903
-42,372
-39,884
-37,449
-35,076
-32,776
-30,559
-28,435
-26,412
-24,499
-22,703
-21,032
-19,493
-18,094
-16,844
-15,749
-14,817
-14,051
-13,46
-13,046
-12,814
-12,767
-12,907
-13,235
-13,752
-14,457
-15,349
-16,426
-17,684
-19,119
-20,725
-22,498
-24,43
-26,513
-28,739
-31,099
-33,583
-36,182
-38,884
-41,679
-44,553
-47,496
-50,495
-53,537
-56,609
-59,698
-62,792
-65,878
-68,943
-71,975
-74,962
-77,892
-80,753
-83,535
-86,226
-88,817
-91,298
-93,66
-95,895
-97,996
-99,954
-101,765
-103,423
-104,924
-106,263
-107,438
-108,446
-109,286
-109,957
-110,461
-110,796
-110,966
-110,973
-110,82
-110,512
-110,052
-109,446
-108,7
-107,821
-106,815
-105,689
-104,451
-103,11
-101,673
-100,149
-98,547
-96,875
-95,143
-93,36
-91,535
-89,677
-87,794
-85,896
-83,991
-82,087
-80,193
-78,316
-76,464
-74,644
-72,862
-71,125
-69,439
-67,809
-66,24
-64,736
-63,3
-61,937
-60,647
-59,432
-58,294
-57,232
-56,245
-55,331
-54,49
-53,719
-53,014
-52,373
-51,792
-51,267
-50,795
-50,371
-49,991
-49,648
-49,337
-49,052
-48,785
-48,53
-48,278
-48,023
-47,757
-47,472
-47,161
-46,82
-46,441
-46,016
-45,535
-44,994
-44,388
-43,719
-42,988
-42,199
-41,358
-40,478
-39,571
-38,654
-37,736
-36,829
-35,935
-35,061
-34,21
-33,389
-32,605
-31,862
-31,152
-30,467
-29,793
-29,114
-28,411
-27,658
-26,819
-25,864
-24,775
-23,544
-22,178
-20,686
-19,08
-17,376
-15,591
-13,747
-11,875
-10,006
-8,174
-6,415
-4,76
-3,255
-1,953
-0,891
-0,092
0,448
0,751
0,838
0,738
0,485
0,104
-0,381
-0,957
-1,635
-2,41
-3,27
-4,218
-5,262
-6,426
-7,756
-9,289
-11,068
-13,177
-15,767
-18,943
-22,683
-26,794
-30,937
-34,792
-38,148
-40,755
-42,167
-42,032
-40,417
-37,89
-35,402
-33,784
-33,456
-34,846
-38,769
-45,87
-55,061
-63,423
-67,835
-66,197
-59,729
-51,308
-40,37
-22,019
11,475
66,227
142,707
233,942
329,438
423,001
509,531
585,456
648,827
689,204
695,341
661,708
584,488
471,419
339,811
206,035
89,368
4,462
-46,338
-66,224
-66,277
-60,93
-56,861
-55,873
-55,366
-50,216
-40,263
-28,441
-17,799
-11,32
-9,433
-10,752
-14,059
-18,052
-21,492
-23,427
-23,31
-21,082
-17,081
-11,907
-6,117
-0,165
5,426
10,149
13,738
16,122
17,382
17,736
17,363
16,4
15,019
13,393
11,662
9,962
8,395
7,033
5,965
5,262
4,961
5,094
5,66
6,64
8,01
9,735
11,767
14,061
16,573
19,256
22,067
24,955
27,868
30,758
33,579
36,299
38,896
41,357
43,679
45,867
47,928
49,876
51,727
53,497
55,196
56,834
58,419
59,96
61,469
62,96
64,447
65,942
67,451
68,979
70,528
72,1
73,693
75,297
76,897
78,481
80,041
81,579
83,1
84,609
86,108
87,6
89,085
90,573
92,074
93,593
95,133
96,696
98,29
99,936
101,666
103,506
105,464
107,534
109,698
111,941
114,239
116,565
118,88
121,13
123,265
125,247
127,046
128,631
129,965
130,992
131,647
131,877
131,65
130,95
129,775
128,124
126,006
123,448
120,496
117,212
113,653
109,857
105,857
101,683
97,377
92,991
88,586
84,209
79,895
75,67
71,555
67,572
63,731
60,029
56,445
52,948
49,517
46,144
42,829
39,572
36,368
33,208
30,084
26,996
23,945
20,935
17,966
15,037
12,155
9,33
6,583
3,933
1,396
-1,022
-3,317
-5,488
-7,532
-9,45
-11,245
-12,923
-14,491
-15,954
-17,316
-18,579
-19,748
-20,83
-21,835
-22,77
-23,644
-24,461
-25,228
-25,95
-26,632
-27,278
-27,89
-28,47
-29,021
-29,546
-30,048
-30,531
-31
-31,456
-31,904
-32,346
-32,785
-33,222
-33,66
-34,099
-34,541
-34,986
-35,435
-35,89
-36,351
-36,818
-37,294
-37,778
-38,271
-38,773
-39,286
-39,811
-40,347
-40,896
-41,46
-42,041
-42,639
-43,257
-43,897
-44,562
-45,252
-45,968
-46,711
-47,482
-48,28
-49,105
-49,956
-50,832
-51,733
-52,656
-53,603
-54,57
-55,557
-56,562
-57,584
-58,619
-59,665
-60,717
-61,769
-62,819
-63,86
-64,887
-65,894
-66,876
-67,826
-68,74
-69,613
-70,437
-71,202
-71,899
-72,517
-73,05
-73,493
-73,843
-74,101
-74,268
-74,353
-74,369
-74,33
-74,245
-74,123
-73,964
-73,774
-73,558
-73,323
-73,078
-72,829
-72,574
-72,315
-72,056
-71,789
-71,5
-71,161
-70,727
-70,158
-69,423
-68,497
-67,363
-66,012
-64,435
-62,636
-60,628
-58,425
-56,051
-53,518
-50,829
-47,999
-45,062
-42,068
-39,093
-36,209
-33,478
-30,961
-28,715
-26,777
-25,181
-23,938
-23,03
-22,447
-22,18
-22,246
-22,708
-23,618
-25,011
-26,9
-29,253
-32,05
-35,287
-38,936
-42,966
-47,362
-52,073
-57,157
-62,769
-68,918
-75,538
-82,409
-89,02
-94,921
-99,8
-103,121
-104,341
-103,399
-100,344
-95,688
-90,853
-87,015
-85,031
-86,341
-91,114
-97,491
-104,191
-109,082
-110,859
-112,462
-114,602
-114,547
-107,31
-82,48
-31,761
46,321
149,223
268,224
391,354
506,297
599,219
656,927
669,208
632,671
550,133
431,272
292,824
151,637
26,765
-65,637
-121,103
-142,025
-140,451
-132,959
-127,291
-126,216
-127,329
-124,36
-117,312
-108,964
-101,877
-99,66
-102,899
-109,833
-119,056
-128,681
-136,66
-142,143
-144,82
-144,558
-141,859
-137,325
-131,409
-124,793
-118,276
-112,313
-107,116
-102,753
-99,044
-95,84
-93,086
-90,664
-88,45
-86,36
-84,334
-82,36
-80,484
-78,752
-77,164
-75,7
-74,323
-72,993
-71,707
-70,477
-69,317
-68,246
-67,271
-66,395
-65,626
-64,982
-64,456
-64,024
-63,635
-63,209
-62,691
-62,055
-61,28
-60,364
-59,289
-58,033
-56,579
-54,928
-53,077
-51,032
-48,791
-46,346
-43,71
-40,912
-37,996
-35,024
-32,041
-29,074
-26,146
-23,27
-20,458
-17,723
-15,066
-12,477
-9,95
-7,481
-5,069
-2,716
-0,42
1,834
4,059
6,277
8,501
10,738
12,992
15,267
17,559
19,867
22,181
24,487
26,773
29,031
31,25
33,424
35,544
37,6
39,581
41,476
43,277
44,974
46,558
48,021
49,355
50,554
51,613
52,528
53,294
53,907
54,363
54,657
54,787
54,749
54,54
54,159
53,604
52,876
51,975
50,903
49,662
48,256
46,69
44,968
43,097
41,083
38,934
36,658
34,263
31,759
29,154
26,46
23,684
20,839
17,933
14,978
11,983
8,959
5,916
2,863
-0,188
-3,229
-6,249
-9,24
-12,191
-15,094
-17,94
-20,721
-23,429
-26,057
-28,598
-31,046
-33,396
-35,642
-37,782
-39,811
-41,728
-43,53
-45,219
-46,792
-48,252
-49,6
-50,837
-51,967
-52,992
-53,916
-54,741
-55,473
-56,114
-56,668
-57,139
-57,532
-57,851
-58,102
-58,289
-58,418
-58,495
-58,525
-58,515
-58,468
-58,389
-58,282
-58,148
-57,991
-57,812
-57,613
-57,396
-57,163
-56,916
-56,658
-56,39
-56,111
-55,821
-55,514
-55,186
-54,837
-54,467
-54,078
-53,677
-53,27
-52,869
-52,482
-52,117
-51,777
-51,458
-51,15
-50,845
-50,529
-50,199
-49,855
-49,497
-49,123
-48,727
-48,301
-47,829
-47,29
-46,656
-45,898
-44,996
-43,94
-42,738
-41,413
-39,996
-38,526
-37,034
-35,542
-34,068
-32,629
-31,24
-29,919
-28,693
-27,596
-26,674
-25,977
-25,542
-25,387
-25,514
-25,898
-26,496
-27,247
-28,089
-28,974
-29,867
-30,746
-31,596
-32,403
-33,147
-33,804
-34,345
-34,732
-34,937
-34,943
-34,744
-34,366
-33,859
-33,303
-32,791
-32,394
-32,158
-32,108
-32,249
-32,581
-33,096
-33,776
-34,594
-35,529
-36,557
-37,659
-38,806
-39,935
-40,951
-41,729
-42,119
-42
-41,278
-39,881
-37,763
-34,899
-31,274
-26,907
-21,84
-16,111
-9,762
-2,834
4,625
12,52
20,724
29,081
37,403
45,515
53,262
60,482
67,046
72,835
77,717
81,591
84,376
85,997
86,409
85,573
83,429
79,971
75,223
69,229
62,129
54,003
44,835
34,763
24,017
12,938
2,139
-7,842
-16,676
-23,821
-28,652
-30,987
-30,894
-28,943
-26,389
-24,275
-23,332
-24,592
-29,08
-36,076
-43,422
-48,495
-47,562
-40,514
-30,909
-19,225
-4,697
18,347
61,642
131,529
229,442
349,832
477,397
595,215
686,685
739,649
749,259
717,807
653,031
562,543
454,708
337,275
218,709
112,492
31,1
-18,429
-36,472
-33,68
-23,653
-14,726
-10,22
-7,572
-2,33
5,376
13,561
19,855
21,597
18,83
13,118
5,703
-1,63
-7,206
-10,402
-10,974
-9,001
-5,083
0,196
6,375
12,807
18,818
24,06
28,365
31,723
34,304
36,217
37,507
38,259
38,567
38,485
38,072
37,37
36,403
35,226
33,918
32,549
31,182
29,863
28,617
27,46
26,417
25,511
24,775
24,254
23,99
24,017
24,36
25,02
25,994
27,268
28,822
30,628
32,662
34,895
37,309
39,891
42,619
45,467
48,399
51,366
54,324
57,234
60,066
62,799
65,414
67,899
70,249
72,466
74,553
76,516
78,358
80,079
81,684
83,184
84,59
85,924
87,2
88,431
89,625
90,791
91,936
93,063
94,174
95,266
96,337
97,387
98,414
99,419
100,402
101,36
102,289
103,187
104,05
104,875
105,659
106,401
107,095
107,741
108,334
108,873
109,354
109,773
110,126
110,406
110,609
110,729
110,759
110,695
110,53
110,259
109,876
109,376
108,756
108,01
107,135
106,126
104,981
103,697
102,274
100,711
99,006
97,161
95,178
93,058
90,805
88,42
85,909
83,276
80,525
77,664
74,698
71,634
68,481
65,245
61,937
58,565
55,138
51,666
48,159
44,627
41,081
37,53
33,985
30,456
26,954
23,489
20,07
16,706
13,408
10,184
7,041
3,987
1,029
-1,828
-4,579
-7,218
-9,742
-12,149
-14,435
-16,599
-18,639
-20,557
-22,351
-24,024
-25,575
-27,009
-28,327
-29,533
-30,631
-31,623
-32,516
-33,313
-34,02
-34,642
-35,185
-35,655
-36,058
-36,4
-36,688
-36,928
-37,127
-37,29
-37,423
-37,533
-37,623
-37,7
-37,768
-37,83
-37,89
-37,951
-38,017
-38,09
-38,173
-38,266
-38,372
-38,492
-38,627
-38,778
-38,946
-39,13
-39,331
-39,549
-39,783
-40,034
-40,3
-40,582
-40,877
-41,185
-41,504
-41,834
-42,171
-42,515
-42,863
-43,213
-43,564
-43,915
-44,262
-44,606
-44,945
-45,277
-45,603
-45,921
-46,23
-46,529
-46,818
-47,095
-47,359
-47,607
-47,839
-48,053
-48,247
-48,42
-48,57
-48,696
-48,797
-48,872
-48,92
-48,939
-48,927
-48,882
-48,803
-48,688
-48,536
-48,346
-48,117
-47,847
-47,538
-47,19
-46,803
-46,375
-45,899
-45,374
-44,804
-44,192
-43,544
-42,867
-42,168
-41,461
-40,765
-40,096
-39,467
-38,89
-38,368
-37,91
-37,531
-37,243
-37,066
-37,002
-37,046
-37,189
-37,421
-37,724
-38,077
-38,44
-38,757
-38,987
-39,098
-39,067
-38,879
-38,505
-37,905
-37,049
-35,907
-34,472
-32,759
-30,78
-28,552
-26,11
-23,502
-20,806
-18,129
-15,551
-13,135
-10,939
-9,024
-7,496
-6,473
-6,058
-6,336
-7,351
-9,136
-11,743
-15,217
-19,573
-24,818
-30,886
-37,706
-45,315
-53,639
-62,498
-71,608
-80,423
-88,391
-95,133
-100,154
-102,894
-103,248
-101,375
-97,772
-93,679
-90,141
-87,837
-87,828
-90,955
-97,006
-105,193
-113,917
-120,317
-121,821
-116,168
-100,264
-71,289
-28,814
25,543
89,047
157,052
227,452
301,855
379,063
456,094
526,453
576,273
592,089
564,246
487,468
366,872
218,602
64,618
-70,363
-165,106
-213,38
-221,924
-205,018
-181,557
-160,459
-141,854
-125,266
-106,544
-87,516
-74,232
-66,376
-64,506
-66,973
-68,892
-70,863
-73,008
-74,083
-74,897
-74,459
-71,903
-68,051
-63,346
-58,333
-53,835
-50,293
-47,856
-46,611
-46,443
-47,054
-48,192
-49,666
-51,274
-52,835
-54,22
-55,3
-55,973
-56,206
-55,991
-55,32
-54,2
-52,663
-50,74
-48,507
-46,078
-43,556
-41,062
-38,712
-36,587
-34,77
-33,345
-32,371
-31,9
-31,951
-32,49
-33,473
-34,857
-36,567
-38,531
-40,644
-42,76
-44,74
-46,451
-47,763
-48,574
-48,786
-48,296
-47,02
-44,896
-41,895
-38,028
-33,324
-27,814
-21,559
-14,634
-7,153
0,732
8,868
17,106
25,306
33,341
41,084
48,398
55,156
61,248
66,59
71,12
74,782
77,535
79,361
80,266
80,306
79,575
78,177
76,229
73,841
71,123
68,196
65,191
62,234
59,444
56,926
54,78
53,117
52,031
51,601
51,89
52,909
54,637
57,035
60,039
63,57
67,54
71,841
76,35
80,953
85,533
89,974
94,159
97,956
101,246
103,921
105,88
107,053
107,396
106,883
105,514
103,321
100,347
96,659
92,339
87,467
82,132
76,429
70,459
64,321
58,111
51,913
45,812
39,882
34,186
28,774
23,677
18,909
14,474
10,364
6,559
3,037
-0,23
-3,278
-6,146
-8,864
-11,454
-13,938
-16,33
-18,646
-20,9
-23,099
-25,24
-27,321
-29,335
-31,276
-33,133
-34,894
-36,544
-38,064
-39,437
-40,652
-41,704
-42,591
-43,313
-43,873
-44,272
-44,52
-44,625
-44,595
-44,437
-44,16
-43,768
-43,273
-42,683
-42,011
-41,266
-40,46
-39,6
-38,697
-37,757
-36,788
-35,797
-34,788
-33,766
-32,737
-31,707
-30,682
-29,669
-28,673
-27,701
-26,758
-25,85
-24,98
-24,152
-23,369
-22,631
-21,942
-21,302
-20,712
-20,172
-19,685
-19,252
-18,875
-18,558
-18,301
-18,107
-17,978
-17,915
-17,917
-17,985
-18,115
-18,306
-18,555
-18,865
-19,237
-19,671
-20,165
-20,713
-21,311
-21,951
-22,619
-23,3
-23,969
-24,608
-25,205
-25,754
-26,254
-26,709
-27,116
-27,476
-27,789
-28,052
-28,268
-28,438
-28,561
-28,646
-28,712
-28,794
-28,944
-29,211
-29,62
-30,191
-30,927
-31,82
-32,863
-34,035
-35,303
-36,644
-38,032
-39,447
-40,877
-42,297
-43,656
-44,882
-45,87
-46,518
-46,745
-46,486
-45,692
-44,337
-42,409
-39,927
-36,943
-33,504
-29,648
-25,403
-20,787
-15,832
-10,609
-5,216
0,217
5,547
10,642
15,379
19,643
23,335
26,384
28,768
30,493
31,571
31,986
31,685
30,605
28,697
25,952
22,411
18,127
13,137
7,501
1,278
-5,491
-12,711
-20,374
-28,612
-37,397
-46,584
-55,93
-64,875
-72,866
-79,583
-84,515
-87,054
-87,224
-85,371
-82,112
-78,901
-77,105
-77,48
-81,103
-89,058
-100,142
-112,475
-124,985
-134,415
-139,498
-139,854
-129,545
-103,827
-60,038
2,88
78,645
159,553
241,722
325,029
409,972
493,322
567
615,029
622,668
584,274
499,136
377,843
239,342
101,158
-16,421
-97,876
-140,575
-149,081
-137,198
-121,832
-111,157
-107,422
-107,264
-104,715
-99,203
-92,776
-87,884
-87,359
-91,185
-97,606
-105,213
-112,21
-117,044
-119,204
-118,515
-115,1
-109,543
-102,436
-94,264
-85,669
-77,325
-69,594
-62,671
-56,611
-51,284
-46,623
-42,624
-39,24
-36,443
-34,227
-32,568
-31,452
-30,878
-30,799
-31,15
-31,858
-32,835
-34,021
-35,375
-36,853
-38,428
-40,067
-41,721
-43,335
-44,837
-46,148
-47,216
-48,006
-48,493
-48,676
-48,555
-48,138
-47,451
-46,51
-45,331
-43,929
-42,31
-40,48
-38,463
-36,284
-33,984
-31,616
-29,221
-26,825
-24,454
-22,121
-19,843
-17,639
-15,514
-13,462
-11,478
-9,549
-7,667
-5,828
-4,02
-2,227
-0,425
1,42
3,331
5,321
7,405
9,598
11,927
14,429
17,127
20,027
23,123
26,396
29,83
33,404
37,088
40,842
44,609
48,337
51,984
55,518
58,906
62,108
65,065
67,71
69,986
71,858
73,307
74,324
74,901
75,042
74,769
74,12
73,152
71,911
70,429
68,73
66,836
64,779
62,604
60,363
58,093
55,823
53,574
51,359
49,197
47,09
45,031
42,993
40,94
38,849
36,708
34,515
32,266
29,959
27,583
25,132
22,605
20,008
17,344
14,618
11,832
8,995
6,126
3,249
0,392
-2,422
-5,18
-7,868
-10,475
-12,991
-15,407
-17,715
-19,914
-22
-23,969
-25,816
-27,533
-29,118
-30,57
-31,89
-33,078
-34,135
-35,062
-35,859
-36,526
-37,065
-37,477
-37,761
-37,917
-37,945
-37,849
-37,63
-37,293
-36,841
-36,279
-35,612
-34,846
-33,988
-33,042
-32,017
-30,917
-29,751
-28,524
-27,244
-25,917
-24,551
-23,152
-21,728
-20,285
-18,832
-17,375
-15,92
-14,476
-13,048
-11,643
-10,265
-8,921
-7,614
-6,351
-5,135
-3,971
-2,863
-1,815
-0,83
0,087
0,935
1,71
2,41
3,035
3,584
4,056
4,453
4,776
5,027
5,208
5,32
5,365
5,344
5,259
5,111
4,901
4,63
4,303
3,923
3,494
3,022
2,51
1,966
1,391
0,788
0,156
-0,503
-1,187
-1,89
-2,603
-3,313
-4,006
-4,664
-5,271
-5,813
-6,282
-6,672
-6,989
-7,238
-7,43
-7,564
-7,635
-7,633
-7,555
-7,405
-7,189
-6,926
-6,639
-6,362
-6,136
-6,002
-5,991
-6,113
-6,363
-6,717
-7,148
-7,638
-8,179
-8,767
-9,393
-10,043
-10,699
-11,339
-11,927
-12,411
-12,71
-12,737
-12,425
-11,733
-10,648
-9,185
-7,366
-5,213
-2,751
-0,008
2,985
6,195
9,607
13,204
16,952
20,795
24,633
28,353
31,858
35,074
37,944
40,434
42,514
44,163
45,388
46,198
46,602
46,586
46,087
45,038
43,385
41,104
38,219
34,772
30,783
26,281
21,308
15,867
9,986
3,651
-3,256
-10,749
-18,733
-27,028
-35,201
-42,741
-49,242
-54,163
-56,927
-57,372
-55,508
-51,754
-47,304
-43,293
-40,869
-40,615
-41,916
-43,995
-45,802
-48,601
-55,851
-67,582
-81,04
-87,097
-70,545
-24,791
48,329
140,264
234,076
320,803
401,398
476,404
546,468
606,2
641,514
640,992
601,644
526,573
424,735
308,807
189,028
75,177
-20,07
-87,547
-123,943
-131,625
-121,189
-105,126
-90,705
-80,748
-73,991
-67,494
-61,008
-55,83
-53,443
-55,113
-60,188
-67,059
-73,977
-79,103
-81,614
-81,434
-78,756
-74,138
-68,212
-61,542
-54,842
-48,834
-43,894
-40,171
-37,661
-36,201
-35,685
-36,045
-37,151
-38,835
-40,952
-43,353
-45,905
-48,516
-51,075
-53,459
-55,566
-57,311
-58,65
-59,57
-60,073
-60,161
-59,834
-59,088
-57,933
-56,4
-54,531
-52,389
-50,044
-47,563
-45,006
-42,438
-39,909
-37,457
-35,106
-32,859
-30,711
-28,66
-26,707
-24,856
-23,109
-21,462
-19,904
-18,42
-16,991
-15,599
-14,227
-12,855
-11,468
-10,055
-8,608
-7,127
-5,616
-4,075
-2,505
-0,903
0,73
2,395
4,09
5,815
7,565
9,337
11,127
12,928
14,735
16,54
18,339
20,124
21,892
23,634
25,345
27,017
28,641
30,209
31,713
33,143
34,489
35,743
36,896
37,939
38,866
39,667
40,337
40,869
41,259
41,501
41,591
41,527
41,306
40,928
40,392
39,699
38,85
37,848
36,696
35,399
33,96
32,387
30,684
28,859
26,919
24,873
22,728
20,493
18,178
15,79
13,34
10,837
8,29
5,709
3,103
0,481
-2,149
-4,777
-7,396
-9,999
-12,578
-15,126
-17,638
-20,108
-22,533
-24,907
-27,227
-29,492
-31,699
-33,847
-35,934
-37,961
-39,929
-41,837
-43,686
-45,479
-47,218
-48,903
-50,538
-52,126
-53,668
-55,168
-56,628
-58,051
-59,44
-60,796
-62,122
-63,421
-64,695
-65,945
-67,175
-68,385
-69,577
-70,754
-71,915
-73,061
-74,192
-75,309
-76,411
-77,497
-78,565
-79,614
-80,643
-81,65
-82,633
-83,59
-84,517
-85,413
-86,274
-87,099
-87,883
-88,625
-89,322
-89,972
-90,572
-91,122
-91,62
-92,065
-92,457
-92,795
-93,078
-93,308
-93,482
-93,603
-93,669
-93,684
-93,647
-93,56
-93,427
-93,25
-93,032
-92,777
-92,49
-92,174
-91,833
-91,472
-91,095
-90,707
-90,312
-89,914
-89,517
-89,126
-88,748
-88,388
-88,051
-87,744
-87,471
-87,239
-87,05
-86,91
-86,821
-86,781
-86,793
-86,859
-86,981
-87,167
-87,419
-87,736
-88,115
-88,554
-89,046
-89,582
-90,143
-90,708
-91,258
-91,783
-92,275
-92,735
-93,164
-93,558
-93,915
-94,233
-94,508
-94,744
-94,943
-95,102
-95,238
-95,371
-95,541
-95,809
-96,22
-96,802
-97,57
-98,522
-99,645
-100,925
-102,336
-103,842
-105,412
-107,011
-108,608
-110,18
-111,68
-113,042
-114,178
-114,96
-115,283
-115,065
-114,243
-112,794
-110,712
-108,011
-104,734
-100,952
-96,728
-92,123
-87,193
-81,978
-76,546
-70,986
-65,414
-59,987
-54,851
-50,134
-45,944
-42,347
-39,375
-37,038
-35,308
-34,121
-33,424
-33,178
-33,367
-34,005
-35,091
-36,6
-38,469
-40,616
-42,976
-45,494
-48,14
-50,912
-53,807
-56,878
-60,283
-64,118
-68,342
-72,767
-76,95
-80,404
-82,799
-83,761
-82,822
-79,833
-75,015
-69,026
-63,233
-59,028
-57,33
-58,989
-64,722
-74,493
-87,417
-101,743
-114,431
-121,976
-121,326
-109,532
-83,697
-42,816
11,767
78,043
152,343
232,042
317,333
406,321
494,465
573,28
630,721
656,166
642,917
590,971
504,19
389,717
260,186
129,288
14,304
-68,107
-112,51
-122,024
-109,247
-91,155
-76,622
-68,277
-63,45
-56,714
-47,585
-38,064
-30,382
-27,154
-28,361
-32,347
-37,75
-42,775
-45,948
-46,838
-45,334
-41,679
-36,528
-30,479
-24,043
-17,831
-12,396
-8,004
-4,737
-2,507
-1,076
-0,25
0,125
0,21
0,16
0,097
0,117
0,295
0,676
1,303
2,231
3,495
5,11
7,071
9,341
11,853
14,523
17,269
20,019
22,718
25,323
27,79
30,086
32,189
34,095
35,818
37,368
38,749
39,967
41,036
41,985
42,862
43,727
44,624
45,592
46,657
47,837
49,154
50,615
52,214
53,93
55,727
57,582
59,484
61,427
63,405
65,407
67,417
69,419
71,405
73,371
75,311
77,221
79,096
80,934
82,744
84,54
86,34
88,154
89,986
91,834
93,698
95,574
97,459
99,345
101,219
103,072
104,895
106,677
108,414
110,095
111,708
113,241
114,681
116,017
117,24
118,341
119,31
120,14
120,826
121,362
121,745
121,973
122,04
121,945
121,685
121,256
120,658
119,891
118,953
117,846
116,571
115,131
113,53
111,773
109,865
107,81
105,617
103,29
100,839
98,271
95,593
92,814
89,944
86,991
83,963
80,871
77,723
74,527
71,293
68,029
64,744
61,446
58,142
54,841
51,552
48,28
45,035
41,823
38,651
35,526
32,454
29,442
26,495
23,619
20,818
18,098
15,463
12,917
10,463
8,104
5,844
3,683
1,625
-0,33
-2,18
-3,924
-5,563
-7,096
-8,523
-9,844
-11,06
-12,173
-13,183
-14,092
-14,903
-15,618
-16,239
-16,77
-17,214
-17,573
-17,852
-18,055
-18,186
-18,249
-18,248
-18,188
-18,074
-17,911
-17,703
-17,456
-17,175
-16,863
-16,526
-16,168
-15,792
-15,403
-15,005
-14,601
-14,195
-13,791
-13,391
-12,998
-12,617
-12,248
-11,894
-11,557
-11,238
-10,939
-10,661
-10,404
-10,169
-9,956
-9,765
-9,597
-9,45
-9,325
-9,221
-9,136
-9,068
-9,018
-8,983
-8,962
-8,954
-8,956
-8,969
-8,99
-9,02
-9,057
-9,101
-9,149
-9,201
-9,257
-9,315
-9,372
-9,428
-9,481
-9,53
-9,573
-9,61
-9,638
-9,657
-9,666
-9,665
-9,653
-9,63
-9,592
-9,539
-9,468
-9,378
-9,266
-9,13
-8,967
-8,775
-8,553
-8,301
-8,016
-7,696
-7,337
-6,932
-6,477
-5,971
-5,413
-4,805
-4,153
-3,463
-2,748
-2,025
-1,31
-0,617
0,043
0,665
1,239
1,758
2,213
2,591
2,881
3,078
3,178
3,186
3,116
2,988
2,838
2,712
2,653
2,706
2,908
3,281
3,843
4,609
5,587
6,793
8,244
9,947
11,909
14,121
16,554
19,169
21,908
24,687
27,422
30,022
32,396
34,477
36,211
37,553
38,462
38,882
38,744
37,964
36,465
34,187
31,103
27,225
22,571
17,162
11,051
4,303
-3,013
-10,793
-19,016
-27,757
-36,942
-46,352
-55,634
-64,186
-71,448
-77,043
-80,467
-81,191
-79,155
-74,638
-68,394
-61,776
-56,119
-52,569
-52,127
-55,493
-61,728
-68,368
-73,547
-75,134
-72,241
-66,176
-54,096
-30,96
7,14
65,561
143,883
235,954
336,363
436,941
527,272
597,978
638,995
641,277
604,248
532,919
433,381
316,479
192,351
70,746
-34,269
-112,425
-159,657
-177,335
-173,403
-156,236
-131,808
-105,52
-82,872
-69,259
-67,725
-76,479
-89,074
-99,089
-103,166
-101,851
-98,81
-96,247
-94,322
-92,252
-88,448
-82,595
-75,515
-67,939
-60,696
-54,467
-49,447
-45,749
-43,444
-42,352
-42,305
-43,206
-44,898
-47,224
-50,046
-53,189
-56,465
-59,742
-62,885
-65,758
-68,272
-70,348
-71,928
-72,982
-73,485
-73,43
-72,832
-71,718
-70,119
-68,083
-65,664
-62,935
-59,993
-56,924
-53,802
-50,69
-47,626
-44,643
-41,768
-39,015
-36,394
-33,906
-31,55
-29,319
-27,212
-25,221
-23,332
-21,526
-19,773
-18,047
-16,329
-14,603
-12,861
-11,094
-9,294
-7,459
-5,591
-3,691
-1,759
0,204
2,203
4,236
6,303
8,402
10,528
12,677
14,845
17,028
19,223
21,424
23,627
25,828
28,022
30,205
32,371
34,513
36,623
38,692
40,713
42,676
44,571
46,391
48,125
49,764
51,302
52,729
54,038
55,222
56,275
57,19
57,963
58,589
59,065
59,387
59,555
59,566
59,42
59,118
58,661
58,05
57,289
56,38
55,329
54,14
52,817
51,368
49,797
48,113
46,323
44,435
42,456
40,395
38,262
36,065
33,814
31,518
29,185
26,826
24,448
22,06
19,67
17,285
14,914
12,563
10,237
7,943
5,687
3,473
1,304
-0,814
-2,88
-4,889
-6,84
-8,73
-10,559
-12,324
-14,025
-15,66
-17,23
-18,734
-20,172
-21,544
-22,852
-24,095
-25,276
-26,394
-27,452
-28,451
-29,393
-30,278
-31,11
-31,888
-32,616
-33,293
-33,922
-34,502
-35,036
-35,523
-35,963
-36,358
-36,706
-37,007
-37,261
-37,468
-37,626
-37,736
-37,796
-37,805
-37,764
-37,672
-37,528
-37,333
-37,086
-36,786
-36,435
-36,031
-35,575
-35,068
-34,508
-33,897
-33,234
-32,522
-31,76
-30,95
-30,093
-29,192
-28,248
-27,263
-26,242
-25,188
-24,103
-22,993
-21,861
-20,714
-19,556
-18,393
-17,23
-16,073
-14,929
-13,803
-12,701
-11,628
-10,591
-9,594
-8,644
-7,745
-6,903
-6,123
-5,41
-4,769
-4,206
-3,723
-3,326
-3,017
-2,8
-2,677
-2,65
-2,72
-2,887
-3,15
-3,509
-3,961
-4,504
-5,133
-5,845
-6,635
-7,498
-8,428
-9,419
-10,462
-11,549
-12,671
-13,819
-14,983
-16,153
-17,318
-18,469
-19,594
-20,686
-21,733
-22,725
-23,65
-24,491
-25,237
-25,879
-26,41
-26,825
-27,124
-27,308
-27,385
-27,37
-27,273
-27,108
-26,883
-26,601
-26,27
-25,896
-25,489
-25,065
-24,635
-24,206
-23,779
-23,35
-22,901
-22,411
-21,844
-21,146
-20,274
-19,182
-17,837
-16,224
-14,333
-12,159
-9,701
-6,953
-3,908
-0,569
3,053
6,932
11,021
15,266
19,584
23,869
28,019
31,926
35,503
38,688
41,435
43,709
45,479
46,714
47,35
47,309
46,526
44,95
42,574
39,432
35,566
31,017
25,885
20,32
14,44
8,346
2,038
-4,615
-11,629
-18,843
-26,083
-33,154
-39,659
-45,125
-49,072
-50,729
-50,381
-49,479
-48,251
-46,655
-43,515
-35,829
-24,779
-14,005
-7,069
-9,413
-21,232
-38,925
-59,351
-75,345
-80,121
-67,205
-29,184
35,369
123,791
229,142
340,854
451,054
550,179
628,248
676,588
684,104
646,4
565,87
449,995
315,546
180,204
61,389
-26,449
-79,446
-100,025
-97,225
-82,902
-63,527
-44,505
-30,091
-21,803
-22,596
-32,053
-44,312
-54,849
-60,783
-61,702
-61,69
-63,407
-66,381
-69,597
-71,089
-69,818
-66,55
-62,141
-57,219
-52,379
-48,051
-44,473
-41,848
-40,222
-39,411
-39,291
-39,799
-40,816
-42,232
-43,937
-45,804
-47,752
-49,721
-51,616
-53,335
-54,776
-55,866
-56,571
-56,884
-56,803
-56,341
-55,514
-54,352
-52,898
-51,191
-49,269
-47,172
-44,936
-42,605
-40,228
-37,849
-35,513
-33,251
-31,078
-29,004
-27,032
-25,157
-23,375
-21,675
-20,043
-18,467
-16,939
-15,451
-13,994
-12,56
-11,137
-9,716
-8,286
-6,838
-5,367
-3,866
-2,331
-0,76
0,851
2,502
4,193
5,924
7,697
9,512
11,371
13,273
15,218
17,204
19,23
21,293
23,389
25,514
27,661
29,825
31,997
34,172
36,34
38,492
40,62
42,714
44,765
46,762
48,695
50,554
52,33
54,011
55,589
57,054
58,397
59,61
60,684
61,613
62,39
63,009
63,466
63,756
63,875
63,821
63,591
63,184
62,599
61,836
60,896
59,781
58,494
57,039
55,419
53,641
51,71
49,632
47,415
45,067
42,596
40,01
37,318
34,531
31,658
28,709
25,695
22,625
19,511
16,362
13,189
10,002
6,81
3,622
0,449
-2,702
-5,822
-8,903
-11,935
-14,913
-17,828
-20,674
-23,444
-26,132
-28,733
-31,242
-33,654
-35,966
-38,175
-40,277
-42,272
-44,156
-45,93
-47,592
-49,143
-50,582
-51,913
-53,135
-54,252
-55,266
-56,18
-56,998
-57,722
-58,357
-58,907
-59,375
-59,767
-60,086
-60,337
-60,525
-60,656
-60,734
-60,765
-60,754
-60,708
-60,63
-60,528
-60,405
-60,268
-60,12
-59,969
-59,817
-59,67
-59,533
-59,409
-59,302
-59,216
-59,153
-59,117
-59,109
-59,131
-59,185
-59,272
-59,393
-59,548
-59,739
-59,965
-60,228
-60,527
-60,862
-61,233
-61,638
-62,077
-62,549
-63,052
-63,585
-64,145
-64,732
-65,341
-65,973
-66,623
-67,29
-67,971
-68,662
-69,362
-70,067
-70,775
-71,483
-72,189
-72,892
-73,589
-74,279
-74,96
-75,631
-76,292
-76,94
-77,573
-78,191
-78,79
-79,369
-79,925
-80,456
-80,959
-81,433
-81,876
-82,285
-82,66
-83,001
-83,304
-83,568
-83,79
-83,969
-84,101
-84,185
-84,218
-84,197
-84,121
-83,988
-83,797
-83,547
-83,234
-82,855
-82,402
-81,87
-81,257
-80,562
-79,789
-78,944
-78,035
-77,075
-76,083
-75,077
-74,075
-73,09
-72,129
-71,2
-70,313
-69,48
-68,719
-68,042
-67,454
-66,949
-66,515
-66,13
-65,765
-65,378
-64,91
-64,299
-63,491
-62,444
-61,135
-59,543
-57,65
-55,424
-52,834
-49,86
-46,496
-42,756
-38,67
-34,278
-29,637
-24,832
-19,973
-15,181
-10,577
-6,248
-2,265
1,306
4,387
6,861
8,615
9,552
9,6
8,719
6,892
4,1
0,353
-4,291
-9,786
-16,051
-23,026
-30,758
-39,191
-48,18
-57,499
-66,663
-75,11
-82,371
-87,833
-90,875
-91,34
-89,222
-84,966
-79,87
-75,166
-72,172
-71,693
-73,181
-75,866
-78,779
-83,272
-92,629
-106,509
-121,824
-128,617
-111,91
-66,172
7,645
101,256
199,216
295,365
388,536
476,828
558,357
624,04
660,387
656,643
608,704
518,478
395,342
256,235
118,459
0,654
-82,583
-128,945
-143,683
-139,492
-130,627
-123,316
-118,883
-114,49
-106,176
-94,976
-83,619
-74,686
-70,741
-71,66
-75,79
-81,789
-87,787
-92,048
-93,918
-93,146
-89,813
-84,49
-77,754
-70,098
-62,234
-54,899
-48,472
-43,125
-38,853
-35,471
-32,87
-30,981
-29,665
-28,771
-28,178
-27,797
-27,584
-27,541
-27,626
-27,767
-27,887
-27,92
-27,838
-27,632
-27,295
-26,808
-26,141
-25,285
-24,25
-23,059
-21,733
-20,289
-18,724
-17,037
-15,242
-13,362
-11,423
-9,448
-7,44
-5,406
-3,355
-1,313
0,689
2,633
4,516
6,339
8,104
9,807
11,439
12,992
14,472
15,884
17,236
18,532
19,771
20,959
22,107
23,234
24,358
25,494
26,649
27,827
29,035
30,277
31,557
32,878
34,235
35,626
37,049
38,504
39,989
41,5
43,032
44,576
46,123
47,665
49,196
50,707
52,19
53,637
55,04
56,393
57,69
58,925
60,089
61,175
62,176
63,085
63,894
64,598
65,191
65,666
66,019
66,246
66,344
66,31
66,142
65,837
65,394
64,813
64,094
63,238
62,245
61,119
59,861
58,476
56,968
55,34
53,598
51,749
49,797
47,749
45,612
43,394
41,102
38,743
36,325
33,857
31,346
28,801
26,229
23,637
21,035
18,428
15,824
13,23
10,653
8,1
5,575
3,087
0,64
-1,761
-4,109
-6,401
-8,631
-10,797
-12,894
-14,919
-16,869
-18,742
-20,536
-22,249
-23,881
-25,431
-26,899
-28,285
-29,59
-30,816
-31,962
-33,031
-34,025
-34,945
-35,792
-36,569
-37,278
-37,921
-38,499
-39,014
-39,469
-39,866
-40,207
-40,494
-40,73
-40,915
-41,054
-41,147
-41,198
-41,207
-41,178
-41,111
-41,008
-40,871
-40,701
-40,5
-40,267
-40,005
-39,712
-39,391
-39,041
-38,662
-38,255
-37,821
-37,36
-36,872
-36,359
-35,822
-35,262
-34,68
-34,078
-33,459
-32,824
-32,175
-31,514
-30,844
-30,168
-29,486
-28,802
-28,117
-27,435
-26,757
-26,086
-25,425
-24,776
-24,141
-23,524
-22,927
-22,353
-21,804
-21,283
-20,793
-20,335
-19,911
-19,523
-19,171
-18,856
-18,577
-18,335
-18,129
-17,956
-17,816
-17,708
-17,627
-17,573
-17,54
-17,524
-17,521
-17,526
-17,535
-17,542
-17,542
-17,531
-17,502
-17,454
-17,38
-17,276
-17,136
-16,951
-16,713
-16,421
-16,073
-15,669
-15,214
-14,711
-14,168
-13,599
-13,018
-12,433
-11,855
-11,286
-10,73
-10,196
-9,695
-9,245
-8,86
-8,538
-8,275
-8,063
-7,888
-7,731
-7,563
-7,336
-7,006
-6,54
-5,914
-5,121
-4,155
-2,997
-1,623
-0,008
1,87
4,009
6,39
9
11,809
14,776
17,843
20,92
23,909
26,738
29,355
31,718
33,796
35,536
36,852
37,652
37,852
37,383
36,212
34,326
31,706
28,332
24,221
19,422
14,012
8,103
1,709
-5,249
-12,721
-20,534
-28,357
-35,625
-41,871
-46,828
-50,037
-50,958
-49,47
-45,693
-40,238
-34,38
-29,201
-25,497
-24,354
-26,819
-31,979
-37,573
-41,309
-39,634
-32,681
-24,32
-13,765
0,559
23,156
65,541
131,311
219,086
327,027
442,166
551,383
643,078
699,267
708,7
668,126
578,854
453,869
311,001
166,808
38,235
-62,495
-128,559
-158,494
-157,014
-132,578
-96,907
-60,823
-33,589
-21,523
-24,345
-37,832
-53,854
-65,03
-69,218
-67,552
-64,507
-63,347
-63,823
-64,701
-63,984
-60,78
-55,84
-50,03
-44,122
-38,702
-34,107
-30,517
-28,037
-26,604
-26,014
-26,108
-26,761
-27,81
-29,088
-30,435
-31,696
-32,756
-33,541
-33,955
-33,895
-33,299
-32,129
-30,392
-28,137
-25,414
-22,283
-18,822
-15,122
-11,291
-7,435
-3,644
0,003
3,434
6,591
9,42
11,87
13,914
15,536
16,733
17,535
17,978
18,104
17,972
17,648
17,212
16,749
16,337
16,036
15,898
15,958
16,242
16,784
17,605
18,73
20,186
21,976
24,09
26,521
29,246
32,231
35,433
38,79
42,23
45,7
49,16
52,575
55,927
59,187
62,324
65,311
68,111
70,703
73,073
75,203
77,084
78,716
80,108
81,285
82,288
83,142
83,864
84,466
84,95
85,323
85,597
85,777
85,872
85,886
85,824
85,693
85,5
85,246
84,929
84,54
84,06
83,482
82,799
82,011
81,118
80,123
79,026
77,833
76,551
75,185
73,741
72,223
70,631
68,97
67,246
65,464
63,632
61,756
59,841
57,891
55,91
53,901
51,867
49,81
47,73
45,629
43,509
41,373
39,223
37,061
34,889
32,71
30,525
28,334
26,14
23,941
21,742
19,543
17,349
15,163
12,99
10,834
8,701
6,598
4,528
2,496
0,505
-1,439
-3,331
-5,164
-6,929
-8,62
-10,233
-11,764
-13,209
-14,571
-15,851
-17,06
-18,208
-19,298
-20,331
-21,307
-22,216
-23,053
-23,811
-24,481
-25,063
-25,553
-25,948
-26,246
-26,441
-26,518
-26,461
-26,243
-25,835
-25,224
-24,402
-23,368
-22,143
-20,749
-19,212
-17,566
-15,829
-14,014
-12,142
-10,23
-8,299
-6,387
-4,531
-2,783
-1,208
0,141
1,223
2,008
2,5
2,704
2,63
2,299
1,706
0,843
-0,284
-1,676
-3,332
-5,235
-7,363
-9,673
-12,087
-14,529
-16,934
-19,248
-21,443
-23,494
-25,362
-27,02
-28,428
-29,541
-30,327
-30,744
-30,743
-30,286
-29,354
-27,95
-26,122
-23,929
-21,422
-18,653
-15,67
-12,529
-9,311
-6,084
-2,915
0,127
2,975
5,545
7,741
9,483
10,713
11,392
11,506
11,059
10,053
8,501
6,438
3,913
0,998
-2,243
-5,751
-9,455
-13,273
-17,102
-20,836
-24,384
-27,674
-30,642
-33,22
-35,358
-37,001
-38,11
-38,666
-38,655
-38,078
-36,94
-35,253
-33,046
-30,37
-27,306
-23,928
-20,304
-16,486
-12,521
-8,467
-4,376
-0,306
3,683
7,536
11,184
14,567
17,631
20,328
22,618
24,491
25,963
27,052
27,78
28,119
28,006
27,382
26,193
24,414
22,06
19,122
15,588
11,509
6,934
1,908
-3,476
-9,263
-15,603
-22,49
-29,827
-37,495
-45,122
-52,149
-58,178
-62,695
-64,923
-65,458
-64,944
-62,868
-60,278
-56,271
-49,795
-44,43
-41,194
-41,928
-49,509
-60,265
-73,384
-88,178
-98,981
-102,136
-89,437
-51,479
13,289
103,322
211,202
325,795
439,657
542,941
624,715
674,641
679,81
634,944
543,058
412,773
261,644
108,782
-28,227
-133,953
-199,699
-226,014
-219,665
-189,761
-148,792
-105,523
-66,708
-41,451
-31,755
-36,584
-51,635
-66,445
-75,912
-78,964
-76,827
-74,537
-73,743
-73,55
-73,094
-70,642
-65,946
-60,035
-53,583
-47,299
-41,75
-37,012
-33,102
-29,993
-27,508
-25,516
-23,965
-22,817
-22,02
-21,553
-21,393
-21,485
-21,804
-22,305
-22,92
-23,606
-24,33
-25,069
-25,814
-26,566
-27,314
-28,047
-28,743
-29,353
-29,833
-30,143
-30,252
-30,161
-29,872
-29,394
-28,742
-27,926
-26,955
-25,842
-24,592
-23,201
-21,676
-20,022
-18,262
-16,433
-14,569
-12,699
-10,844
-9,014
-7,216
-5,456
-3,731
-2,035
-0,361
1,3
2,953
4,596
6,233
7,87
9,517
11,189
12,899
14,652
16,455
18,309
20,212
22,164
24,157
26,182
28,228
30,285
32,343
34,394
36,429
38,436
40,404
42,32
44,171
45,948
47,638
49,232
50,717
52,085
53,327
54,436
55,403
56,223
56,887
57,389
57,724
57,886
57,872
57,678
57,302
56,742
55,998
55,071
53,962
52,674
51,209
49,571
47,766
45,8
43,678
41,408
38,998
36,456
33,791
31,014
28,133
25,159
22,102
18,973
15,782
12,54
9,258
5,944
2,611
-0,734
-4,08
-7,418
-10,74
-14,038
-17,303
-20,529
-23,708
-26,833
-29,899
-32,901
-35,832
-38,69
-41,468
-44,165
-46,775
-49,297
-51,728
-54,065
-56,307
-58,453
-60,5
-62,449
-64,299
-66,051
-67,702
-69,255
-70,709
-72,064
-73,32
-74,478
-75,538
-76,5
-77,365
-78,132
-78,803
-79,379
-79,859
-80,246
-80,541
-80,744
-80,859
-80,886
-80,828
-80,687
-80,466
-80,167
-79,795
-79,352
-78,842
-78,27
-77,639
-76,954
-76,22
-75,44
-74,62
-73,765
-72,881
-71,973
-71,048
-70,111
-69,169
-68,229
-67,298
-66,381
-65,486
-64,618
-63,784
-62,989
-62,239
-61,537
-60,887
-60,293
-59,757
-59,283
-58,873
-58,526
-58,245
-58,031
-57,883
-57,801
-57,783
-57,825
-57,924
-58,077
-58,28
-58,526
-58,809
-59,123
-59,461
-59,817
-60,184
-60,554
-60,916
-61,257
-61,569
-61,845
-62,083
-62,277
-62,43
-62,542
-62,62
-62,678
-62,725
-62,767
-62,807
-62,846
-62,886
-62,935
-62,998
-63,079
-63,179
-63,29
-63,404
-63,509
-63,583
-63,595
-63,506
-63,266
-62,842
-62,215
-61,372
-60,311
-59,029
-57,523
-55,802
-53,883
-51,787
-49,531
-47,142
-44,648
-42,103
-39,581
-37,16
-34,921
-32,927
-31,212
-29,803
-28,719
-27,972
-27,563
-27,479
-27,698
-28,217
-29,067
-30,274
-31,856
-33,796
-36,024
-38,491
-41,181
-44,086
-47,213
-50,579
-54,16
-58
-62,265
-66,976
-72,03
-77,214
-82,07
-86,208
-89,426
-91,323
-91,377
-89,574
-86,217
-81,887
-77,761
-74,759
-73,501
-75,138
-80,781
-89,435
-98,697
-106,31
-109,792
-110,178
-110,615
-109,464
-101,752
-79,904
-35,68
31,978
117,512
213,194
311,192
404,937
487,566
551,02
584,158
576,462
525,069
431,957
306,562
166,324
27,863
-91,066
-176,109
-223,26
-234,813
-220,919
-194,029
-163,344
-136,423
-115,516
-101,656
-94,949
-91,694
-89,774
-87,216
-83,293
-80,634
-80,419
-82,452
-85,543
-87,338
-86,85
-84,303
-80,256
-75,546
-70,687
-66,035
-62,085
-59,129
-57,227
-56,273
-56,023
-56,297
-56,978
-57,942
-59,046
-60,147
-61,128
-61,912
-62,45
-62,7
-62,623
-62,194
-61,401
-60,253
-58,774
-56,999
-54,967
-52,713
-50,271
-47,674
-44,949
-42,136
-39,276
-36,407
-33,571
-30,795
-28,096
-25,489
-22,981
-20,571
-18,254
-16,015
-13,84
-11,714
-9,627
-7,571
-5,536
-3,513
-1,489
0,546
2,602
4,689
6,814
8,984
11,205
13,48
15,812
18,202
20,649
23,153
25,713
28,332
31,007
33,737
36,522
39,359
42,244
45,176
48,148
51,155
54,19
57,246
60,315
63,388
66,455
69,507
72,533
75,522
78,464
81,346
84,158
86,889
89,527
92,062
94,482
96,777
98,938
100,956
102,822
104,53
106,071
107,441
108,635
109,647
110,475
111,116
111,567
111,828
111,899
111,778
111,468
110,972
110,291
109,431
108,397
107,193
105,827
104,305
102,636
100,827
98,887
96,825
94,651
92,373
90,003
87,55
85,025
82,436
79,794
77,109
74,391
71,648
68,889
66,124
63,36
60,606
57,871
55,16
52,484
49,847
47,259
44,724
42,25
39,843
37,507
35,247
33,068
30,975
28,969
27,055
25,235
23,511
21,885
20,358
18,932
17,606
16,382
15,259
14,237
13,315
12,493
11,768
11,14
10,607
10,166
9,816
9,554
9,375
9,278
9,257
9,307
9,425
9,605
9,84
10,126
10,456
10,825
11,225
11,65
12,094
12,55
13,012
13,474
13,928
14,368
14,789
15,185
15,548
15,875
16,158
16,393
16,575
16,698
16,758
16,751
16,674
16,523
16,297
15,992
15,609
15,147
14,607
13,992
13,303
12,543
11,717
10,829
9,883
8,885
7,84
6,753
5,631
4,481
3,311
2,13
0,945
-0,235
-1,403
-2,548
-3,662
-4,737
-5,766
-6,742
-7,657
-8,5
-9,262
-9,933
-10,51
-10,991
-11,377
-11,671
-11,879
-12,011
-12,083
-12,11
-12,105
-12,079
-12,036
-11,984
-11,934
-11,899
-11,899
-11,945
-12,037
-12,175
-12,353
-12,556
-12,765
-12,949
-13,06
-13,061
-12,923
-12,631
-12,185
-11,579
-10,807
-9,86
-8,72
-7,383
-5,858
-4,161
-2,311
-0,348
1,681
3,703
5,622
7,362
8,864
10,081
10,992
11,571
11,786
11,614
10,996
9,856
8,139
5,789
2,778
-0,859
-5,096
-9,909
-15,191
-20,816
-26,694
-32,73
-38,938
-45,445
-52,244
-59,187
-66,134
-72,92
-79,168
-84,399
-88,101
-89,51
-88,967
-87,953
-86,614
-84,782
-81,08
-72,328
-59,793
-47,263
-38,61
-39,619
-50,883
-69,162
-90,811
-108,199
-113,218
-98,099
-57,275
8,765
94,081
188,731
285,766
381,556
471,909
552,162
610,434
631,303
606,151
531,835
416,924
280,73
141,741
20,378
-68,15
-121,482
-142,625
-143,285
-138,817
-135,559
-135,167
-134,912
-128,718
-116,63
-102,236
-88,782
-79,838
-76,265
-76,664
-79,817
-84,454
-89,065
-92,428
-93,899
-93,249
-90,734
-86,967
-82,468
-77,641
-73,025
-69,13
-66,178
-64,238
-63,208
-62,843
-62,979
-63,498
-64,25
-65,106
-65,98
-66,782
-67,455
-67,957
-68,214
-68,187
-67,868
-67,272
-66,454
-65,469
-64,353
-63,153
-61,911
-60,656
-59,411
-58,176
-56,93
-55,671
-54,409
-53,163
-51,962
-50,813
-49,704
-48,614
-47,506
-46,347
-45,115
-43,784
-42,328
-40,739
-39,018
-37,182
-35,272
-33,31
-31,31
-29,28
-27,218
-25,128
-23,022
-20,909
-18,798
-16,699
-14,62
-12,569
-10,56
-8,594
-6,67
-4,779
-2,902
-1,029
0,847
2,727
4,61
6,493
8,375
10,249
12,105
13,935
15,73
17,485
19,193
20,848
22,44
23,958
25,391
26,729
27,961
29,081
30,079
30,948
31,684
32,282
32,74
33,055
33,226
33,252
33,129
32,859
32,44
31,873
31,16
30,3
29,298
28,156
26,878
25,469
23,936
22,283
20,518
18,649
16,683
14,628
12,494
10,288
8,021
5,701
3,338
0,94
-1,482
-3,92
-6,366
-8,811
-11,249
-13,671
-16,072
-18,447
-20,791
-23,1
-25,371
-27,6
-29,786
-31,927
-34,021
-36,068
-38,068
-40,021
-41,928
-43,791
-45,61
-47,388
-49,127
-50,831
-52,503
-54,145
-55,761
-57,354
-58,928
-60,487
-62,034
-63,573
-65,107
-66,639
-68,171
-69,708
-71,249
-72,797
-74,352
-75,913
-77,481
-79,054
-80,629
-82,204
-83,775
-85,339
-86,891
-88,426
-89,941
-91,429
-92,885
-94,305
-95,683
-97,013
-98,291
-99,51
-100,667
-101,757
-102,775
-103,718
-104,58
-105,36
-106,053
-106,657
-107,17
-107,588
-107,911
-108,137
-108,267
-108,299
-108,236
-108,079
-107,831
-107,496
-107,078
-106,583
-106,017
-105,386
-104,699
-103,961
-103,182
-102,368
-101,529
-100,671
-99,802
-98,929
-98,057
-97,192
-96,341
-95,509
-94,698
-93,914
-93,161
-92,442
-91,762
-91,124
-90,528
-89,976
-89,468
-89,005
-88,586
-88,208
-87,871
-87,571
-87,304
-87,07
-86,863
-86,677
-86,504
-86,334
-86,156
-85,964
-85,753
-85,522
-85,271
-85,006
-84,733
-84,469
-84,228
-84,021
-83,858
-83,74
-83,672
-83,66
-83,712
-83,84
-84,051
-84,342
-84,705
-85,122
-85,566
-86,004
-86,389
-86,656
-86,745
-86,602
-86,187
-85,477
-84,453
-83,095
-81,378
-79,278
-76,781
-73,885
-70,604
-66,966
-63,008
-58,787
-54,38
-49,887
-45,414
-41,06
-36,899
-32,989
-29,389
-26,172
-23,433
-21,269
-19,758
-18,95
-18,892
-19,638
-21,239
-23,723
-27,084
-31,251
-36,179
-41,925
-48,481
-55,711
-63,369
-70,992
-78,103
-84,403
-89,507
-92,804
-93,953
-93,018
-90,397
-87,107
-84,275
-82,572
-82,744
-85,987
-92,191
-99,321
-105,029
-105,928
-100,575
-92,376
-83,492
-73,035
-56,843
-23,684
36,531
126,839
245,246
379,863
514,896
636,534
730,464
789,323
808,811
785,426
721,918
620,257
487,843
340,682
195,883
74,733
-7,306
-48,87
-57,286
-48,907
-39,395
-34,492
-34,323
-34,198
-29,662
-22,099
-14,472
-9,623
-9,866
-14,692
-22,359
-31,473
-40,166
-46,71
-50,419
-51,066
-48,82
-44,348
-38,289
-31,157
-23,67
-16,589
-10,327
-5,09
-0,896
2,435
5,018
6,9
8,175
8,931
9,217
9,094
8,605
7,769
6,655
5,347
3,926
2,483
1,082
-0,24
-1,452
-2,541
-3,493
-4,283
-4,882
-5,244
-5,324
-5,1
-4,566
-3,724
-2,592
-1,189
0,459
2,312
4,339
6,515
8,821
11,249
13,785
16,405
19,075
21,753
24,398
26,981
29,482
31,884
34,18
36,364
38,437
40,409
42,294
44,101
45,836
47,503
49,107
50,659
52,173
53,667
55,156
56,648
58,152
59,671
61,21
62,771
64,354
65,952
67,562
69,179
70,8
72,425
74,047
75,661
77,258
78,828
80,365
81,86
83,304
84,692
86,015
87,267
88,445
89,543
90,556
91,474
92,289
92,989
93,57
94,028
94,362
94,576
94,673
94,663
94,556
94,356
94,068
93,688
93,207
92,617
91,907
91,074
90,122
89,052
87,867
86,565
85,143
83,591
81,896
80,039
77,996
75,754
73,311
70,679
67,883
64,957
61,941
58,87
55,768
52,657
49,56
46,499
43,495
40,582
37,793
35,172
32,769
30,619
28,747
27,157
25,834
24,749
23,861
23,134
22,542
22,065
21,687
21,39
21,159
20,966
20,789
20,597
20,352
20,023
19,591
19,052
18,428
17,753
17,076
16,432
15,842
15,317
14,858
14,465
14,137
13,873
13,664
13,5
13,382
13,308
13,268
13,238
13,163
12,966
12,569
11,916
10,972
9,726
8,181
6,354
4,273
1,978
-0,47
-3,005
-5,573
-8,12
-10,588
-12,903
-14,955
-16,604
-17,722
-18,199
-17,96
-16,967
-15,205
-12,691
-9,468
-5,609
-1,222
3,581
8,691
13,995
19,378
24,721
29,865
34,624
38,824
42,305
44,941
46,654
47,391
47,143
45,934
43,823
40,907
37,299
33,121
28,502
23,577
18,476
13,362
8,422
3,828
-0,247
-3,654
-6,291
-8,073
-8,943
-8,88
-7,879
-5,96
-3,168
0,442
4,803
9,834
15,459
21,579
28,075
34,834
41,73
48,645
55,484
62,159
68,594
74,733
80,527
85,92
90,871
95,342
99,304
102,742
105,639
107,988
109,793
111,06
111,817
112,094
111,923
111,325
110,316
108,877
106,979
104,607
101,74
98,377
94,538
90,219
85,406
80,096
74,294
68,013
61,304
54,157
46,467
38,25
29,649
20,947
12,648
5,215
-1,062
-5,752
-8,263
-8,337
-6,055
-1,79
3,455
8,621
12,996
15,508
14,774
11,333
7,457
5,086
7,318
13,869
19,888
25,392
32,874
49,075
87,923
155,407
250,316
366,641
488,87
604,861
705,556
780,61
823,857
826,754
781,385
687,661
550,265
383,535
209,912
50,802
-73,34
-149,667
-177,776
-163,688
-122,003
-70,795
-24,793
2,739
8,162
-3,985
-25,577
-44,068
-53,546
-54,813
-51,016
-48,697
-50,195
-53,585
-57,052
-58,223
-56,357
-52,508
-47,455
-41,814
-36,226
-31,13
-26,764
-23,265
-20,57
-18,465
-16,848
-15,693
-14,917
-14,432
-14,179
-14,107
-14,216
-14,539
-15,057
-15,72
-16,482
-17,302
-18,176
-19,116
-20,134
-21,236
-22,426
-23,697
-25,041
-26,434
-27,827
-29,171
-30,408
-31,48
-32,354
-33,01
-33,434
-33,621
-33,562
-33,243
-32,654
-31,791
-30,652
-29,243
-27,572
-25,657
-23,534
-21,245
-18,836
-16,361
-13,859
-11,354
-8,868
-6,41
-3,989
-1,612
0,72
3,009
5,255
7,459
9,621
11,741
13,825
15,882
17,925
19,968
22,021
24,085
26,162
28,248
30,335
32,417
34,482
36,515
38,505
40,44
42,311
44,108
45,824
47,447
48,966
50,371
51,651
52,798
53,803
54,66
55,361
55,902
56,278
56,487
56,528
56,397
56,093
55,616
54,963
54,137
53,137
51,964
50,621
49,11
47,435
45,6
43,61
41,473
39,193
36,779
34,238
31,58
28,812
25,945
22,987
19,951
16,845
13,682
10,473
7,228
3,961
0,682
-2,597
-5,864
-9,11
-12,322
-15,491
-18,606
-21,659
-24,64
-27,54
-30,351
-33,063
-35,67
-38,163
-40,535
-42,78
-44,892
-46,866
-48,697
-50,381
-51,915
-53,297
-54,526
-55,599
-56,517
-57,281
-57,891
-58,351
-58,664
-58,832
-58,861
-58,756
-58,521
-58,164
-57,69
-57,106
-56,417
-55,631
-54,754
-53,793
-52,756
-51,649
-50,479
-49,256
-47,986
-46,677
-45,338
-43,975
-42,595
-41,206
-39,813
-38,423
-37,039
-35,667
-34,311
-32,973
-31,658
-30,367
-29,102
-27,863
-26,653
-25,471
-24,315
-23,185
-22,075
-20,983
-19,905
-18,837
-17,773
-16,708
-15,637
-14,555
-13,46
-12,344
-11,203
-10,028
-8,808
-7,534
-6,202
-4,807
-3,349
-1,829
-0,251
1,373
3,025
4,69
6,353
8,004
9,636
11,243
12,815
14,343
15,813
17,217
18,553
19,818
21,013
22,149
23,246
24,342
25,489
26,734
28,118
29,673
31,419
33,367
35,526
37,891
40,453
43,199
46,107
49,163
52,352
55,636
58,964
62,263
65,435
68,39
71,045
73,321
75,158
76,518
77,37
77,714
77,561
76,918
75,792
74,162
71,993
69,268
65,978
62,144
57,832
53,096
47,961
42,467
36,626
30,44
23,956
17,137
9,844
2,084
-6,02
-14,15
-21,73
-28,293
-33,598
-37,252
-38,799
-38,175
-35,546
-31,695
-28,089
-25,679
-25,02
-26,925
-31,918
-39,78
-49,116
-56,619
-58,325
-51,888
-38,019
-18,471
6,418
38,047
82,213
144,272
224,846
321,712
426,564
528,326
616,257
679,811
710,461
701,528
651,511
562,418
441,658
305,056
168,812
50,832
-33,411
-80,364
-91,906
-77,131
-50,811
-22,918
-2,48
5,543
3,264
-6,461
-17,68
-24,874
-27,519
-26,975
-26,615
-29,119
-33,934
-39,125
-42,54
-43,132
-41,194
-37,438
-32,598
-27,114
-21,378
-15,932
-11,098
-6,995
-3,608
-0,787
1,547
3,4
4,831
5,923
6,733
7,306
7,646
7,724
7,558
7,188
6,654
6,007
5,265
4,431
3,513
2,516
1,448
0,334
-0,796
-1,907
-2,943
-3,867
-4,644
-5,237
-5,63
-5,818
-5,799
-5,59
-5,201
-4,638
-3,911
-3,024
-1,994
-0,857
0,334
1,509
2,595
3,536
4,29
4,814
5,089
5,109
4,891
4,476
3,904
3,212
2,431
1,581
0,704
-0,142
-0,888
-1,453
-1,765
-1,77
-1,415
-0,647
0,561
2,21
4,263
6,65
9,305
12,172
15,194
18,321
21,476
24,574
27,54
30,295
32,774
34,913
36,637
37,866
38,545
38,651
38,196
37,223
35,767
33,86
31,545
28,872
25,913
22,734
19,386
15,906
12,332
8,706
5,084
1,534
-1,902
-5,2
-8,351
-11,36
-14,23
-16,962
-19,574
-22,097
-24,57
-27,022
-29,465
-31,901
-34,332
-36,765
-39,214
-41,695
-44,211
-46,761
-49,343
-51,952
-54,589
-57,247
-59,913
-62,566
-65,183
-67,749
-70,256
-72,703
-75,086
-77,405
-79,655
-81,838
-83,959
-86,02
-88,024
-89,97
-91,859
-93,691
-95,471
-97,206
-98,902
-100,562
-102,19
-103,79
-105,364
-106,916
-108,447
-109,958
-111,448
-112,916
-114,366
-115,798
-117,214
-118,616
-120,004
-121,38
-122,746
-124,102
-125,45
-126,787
-128,115
-129,433
-130,74
-132,037
-133,324
-134,6
-135,865
-137,121
-138,366
-139,602
-140,83
-142,048
-143,258
-144,46
-145,654
-146,84
-148,018
-149,187
-150,346
-151,496
-152,635
-153,763
-154,879
-155,981
-157,069
-158,143
-159,202
-160,246
-161,273
-162,28
-163,268
-164,234
-165,176
-166,092
-166,979
-167,835
-168,658
-169,447
-170,201
-170,915
-171,587
-172,211
-172,784
-173,307
-173,783
-174,214
-174,608
-174,973
-175,322
-175,674
-176,041
-176,437
-176,871
-177,347
-177,872
-178,454
-179,097
-179,809
-180,591
-181,434
-182,327
-183,254
-184,186
-185,095
-185,942
-186,68
-187,279
-187,716
-187,973
-188,047
-187,938
-187,645
-187,179
-186,548
-185,758
-184,836
-183,808
-182,713
-181,611
-180,559
-179,614
-178,846
-178,296
-177,99
-177,949
-178,168
-178,632
-179,33
-180,243
-181,377
-182,755
-184,387
-186,269
-188,368
-190,636
-193,056
-195,638
-198,377
-201,285
-204,353
-207,61
-211,21
-215,25
-219,69
-224,332
-228,757
-232,552
-235,497
-237,327
-237,608
-236,141
-233,088
-229,077
-225,377
-223,095
-222,883
-225,5
-231,763
-242,005
-254,963
-267,69
-276,713
-279,396
-276,344
-269,476
-257,59
-236,973
-201,259
-144,298
-66,804
25,698
125,643
224,894
317,628
397,925
458,452
488,959
479,052
424,288
324,247
188,39
36,668
-111,246
-233,386
-313,221
-350,319
-349,331
-320,616
-280,219
-236,322
-196,925
-171,963
-162,656
-169,145
-187,448
-205,966
-219,085
-224,895
-223,975
-222,189
-221,922
-222,642
-223,749
-223,118
-220,14
-215,784
-210,714
-205,719
-201,403
-197,799
-194,874
-192,591
-190,758
-189,224
-187,91
-186,72
-185,557
-184,349
-183,043
-181,593
-179,987
-178,214
-176,243
-174,049
-171,644
-169,054
-166,323
-163,502
-160,632
-157,748
-154,886
-152,073
-149,325
-146,655
-144,059
-141,524
-139,031
-136,546
-134,04
-131,487
-128,842
-126,067
-123,121
-119,966
-116,571
-112,917
-108,986
-104,77
-100,272
-95,497
-90,463
-85,198
-79,734
-74,116
-68,382
-62,562
-56,693
-50,801
-44,909
-39,04
-33,208
-27,422
-21,689
-16,017
-10,408
-4,867
0,607
6,018
11,371
16,675
21,936
27,154
32,328
37,453
42,522
47,527
52,457
57,296
62,031
66,651
71,142
75,495
79,699
83,743
87,615
91,305
94,804
98,103
101,198
104,081
106,749
109,197
111,424
113,43
115,214
116,777
118,119
119,24
120,143
120,831
121,307
121,575
121,641
121,509
121,187
120,684
120,007
119,166
118,171
117,031
115,758
114,363
112,858
111,252
109,559
107,79
105,956
104,069
102,14
100,181
98,202
96,214
94,227
92,25
90,294
88,365
86,474
84,627
82,833
81,096
79,424
77,823
76,296
74,849
73,485
72,208
71,02
69,923
68,918
68,006
67,187
66,461
65,825
65,28
64,822
64,449
64,158
63,946
63,808
63,741
63,74
63,8
63,917
64,086
64,301
64,558
64,853
65,179
65,533
65,91
66,305
66,716
67,138
67,568
68,001
68,436
68,868
69,296
69,717
70,128
70,529
70,916
71,29
71,649
71,993
72,322
72,637
72,94
73,232
73,516
73,793
74,068
74,343
74,622
74,907
75,202
75,51
75,834
76,179
76,548
76,946
77,377
77,846
78,356
78,911
79,517
80,175
80,889
81,659
82,489
83,385
84,351
85,394
86,51
87,699
88,955
90,27
91,635
93,034
94,445
95,849
97,227
98,566
99,857
101,091
102,254
103,332
104,306
105,165
105,909
106,542
107,07
107,512
107,891
108,246
108,634
109,099
109,673
110,379
111,221
112,202
113,33
114,607
116,038
117,623
119,341
121,171
123,087
125,037
126,964
128,785
130,39
131,694
132,638
133,172
133,279
132,951
132,169
130,928
129,219
127,005
124,266
120,984
117,149
112,798
107,982
102,744
97,15
91,25
85,056
78,602
71,87
64,731
57,15
49,227
41,193
33,494
26,612
20,88
16,681
14,522
14,597
16,656
20,018
23,435
25,647
25,609
22,365
15,094
3,439
-11,016
-25,834
-39,073
-47,6
-50,358
-46,545
-30,382
1,15
49,424
115,66
192,493
274,157
359,201
443,733
526,453
602,2
659,334
685,662
670,374
609,147
503,974
366,181
215,567
71,894
-43,808
-117,745
-151,035
-149,518
-123,891
-88,241
-49,48
-14,82
6,566
13,124
5,149
-12,741
-29,356
-39,439
-41,965
-38,424
-34,47
-32,219
-30,911
-29,746
-26,95
-22,176
-16,399
-10,286
-4,514
0,375
4,301
7,279
9,367
10,769
11,643
12,066
12,111
11,869
11,43
10,891
10,357
9,897
9,582
9,497
9,702
10,224
11,064
12,184
13,522
15,022
16,643
18,353
20,143
22,016
23,96
25,954
27,974
29,984
31,955
33,857
35,667
37,372
38,976
40,5
41,982
43,46
44,951
46,468
47,999
49,521
51,02
52,485
53,904
55,274
56,592
57,858
59,081
60,266
61,415
62,522
63,571
64,549
65,45
66,274
67,027
67,722
68,369
68,975
69,553
70,107
70,643
71,16
71,655
72,12
72,549
72,939
73,286
73,59
73,845
74,044
74,183
74,251
74,241
74,144
73,95
73,65
73,234
72,696
72,027
71,223
70,278
69,186
67,941
66,538
64,971
63,236
61,327
59,241
56,972
54,519
51,879
49,051
46,034
42,827
39,432
35,851
32,087
28,143
24,024
19,736
15,284
10,677
5,921
1,027
-3,997
-9,14
-14,393
-19,743
-25,179
-30,689
-36,261
-41,883
-47,543
-53,228
-58,925
-64,624
-70,31
-75,972
-81,598
-87,176
-92,693
-98,139
-103,502
-108,772
-113,938
-118,99
-123,919
-128,717
-133,376
-137,889
-142,25
-146,453
-150,494
-154,369
-158,075
-161,611
-164,975
-168,166
-171,186
-174,034
-176,712
-179,223
-181,569
-183,753
-185,779
-187,651
-189,373
-190,95
-192,386
-193,688
-194,861
-195,91
-196,843
-197,665
-198,382
-199,002
-199,532
-199,977
-200,345
-200,642
-200,874
-201,047
-201,165
-201,235
-201,26
-201,244
-201,191
-201,105
-200,986
-200,839
-200,664
-200,463
-200,238
-199,988
-199,715
-199,418
-199,098
-198,754
-198,384
-197,989
-197,566
-197,115
-196,633
-196,118
-195,567
-194,976
-194,342
-193,661
-192,928
-192,14
-191,293
-190,383
-189,405
-188,358
-187,24
-186,046
-184,774
-183,422
-181,987
-180,468
-178,864
-177,174
-175,396
-173,531
-171,578
-169,541
-167,42
-165,216
-162,928
-160,555
-158,099
-155,566
-152,964
-150,302
-147,592
-144,846
-142,079
-139,313
-136,565
-133,85
-131,176
-128,553
-125,99
-123,503
-121,112
-118,834
-116,678
-114,642
-112,722
-110,909
-109,19
-107,54
-105,931
-104,324
-102,69
-101,019
-99,309
-97,563
-95,775
-93,923
-91,979
-89,921
-87,74
-85,436
-83,02
-80,503
-77,911
-75,286
-72,683
-70,168
-67,784
-65,549
-63,463
-61,527
-59,768
-58,257
-57,082
-56,32
-56,028
-56,229
-56,96
-58,28
-60,219
-62,784
-65,954
-69,647
-73,879
-78,791
-84,39
-90,551
-96,989
-103,145
-108,534
-112,863
-115,659
-116,377
-114,926
-111,505
-106,827
-102,241
-98,855
-97,518
-99,251
-104,771
-112,991
-121,561
-127,895
-129,129
-125,462
-118,857
-107,703
-88,218
-54,507
0,052
75,366
166,009
265,342
365,729
460,528
542,829
603,232
629,855
613,604
552,89
451,533
321,847
182,143
48,625
-61,497
-135,444
-171,464
-172,021
-146,238
-107,632
-65,939
-30,931
-8,919
0,028
-1,52
-6,438
-8,283
-5,389
1,315
7,79
11,295
12,688
13,578
16,072
21,198
28,29
36,553
45,323
54,001
62,105
69,34
75,542
80,722
85,092
88,78
91,81
94,242
96,164
97,664
98,856
99,82
100,587
101,216
101,767
102,288
102,83
103,415
104,045
104,732
105,492
106,358
107,388
108,638
110,143
111,922
113,97
116,278
118,833
121,621
124,623
127,823
131,205
134,764
138,501
142,412
146,486
150,696
154,993
159,337
163,697
168,053
172,391
176,704
180,982
185,223
189,432
193,615
197,774
201,906
206,003
210,062
214,083
218,074
222,046
226,007
229,96
233,905
237,839
241,758
245,656
249,524
253,346
257,108
260,798
264,406
267,922
271,338
274,641
277,819
280,86
283,753
286,488
289,054
291,44
293,639
295,639
297,436
299,022
300,391
301,537
302,456
303,14
303,586
303,792
303,753
303,469
302,937
302,16
301,137
299,873
298,371
296,635
294,672
292,486
290,087
287,482
284,679
281,689
278,521
275,186
271,695
268,059
264,289
260,398
256,398
252,302
248,121
243,869
239,557
235,2
230,808
226,394
221,97
217,548
213,137
208,75
204,395
200,081
195,819
191,615
187,476
183,408
179,417
175,508
171,683
167,947
164,301
160,748
157,288
153,922
150,651
147,472
144,386
141,391
138,484
135,664
132,927
130,27
127,692
125,187
122,752
120,385
118,081
115,836
113,646
111,508
109,417
107,371
105,364
103,393
101,457
99,55
97,671
95,819
93,99
92,185
90,401
88,638
86,895
85,173
83,472
81,791
80,131
78,493
76,877
75,284
73,716
72,174
70,657
69,168
67,706
66,271
64,864
63,482
62,127
60,797
59,491
58,209
56,95
55,715
54,503
53,315
52,149
51,006
49,882
48,775
47,681
46,597
45,519
44,44
43,357
42,263
41,156
40,032
38,886
37,714
36,509
35,264
33,979
32,652
31,283
29,877
28,435
26,966
25,482
23,996
22,52
21,064
19,63
18,218
16,831
15,47
14,14
12,838
11,552
10,267
8,969
7,645
6,281
4,858
3,344
1,713
-0,058
-1,984
-4,064
-6,291
-8,659
-11,162
-13,789
-16,519
-19,312
-22,117
-24,892
-27,595
-30,19
-32,634
-34,868
-36,839
-38,502
-39,819
-40,774
-41,359
-41,562
-41,374
-40,789
-39,814
-38,479
-36,832
-34,911
-32,747
-30,374
-27,82
-25,136
-22,377
-19,597
-16,844
-14,153
-11,555
-9,076
-6,747
-4,605
-2,68
-0,985
0,481
1,708
2,682
3,38
3,771
3,845
3,606
3,064
2,23
1,104
-0,323
-2,086
-4,233
-6,797
-9,815
-13,308
-17,28
-21,751
-26,737
-32,227
-38,199
-44,628
-51,465
-58,758
-66,617
-74,988
-83,724
-92,51
-100,79
-108,124
-114,193
-118,458
-120,397
-119,957
-117,224
-112,76
-107,915
-103,721
-100,979
-101,034
-103,887
-107,613
-110,815
-111,386
-108,863
-106,663
-105,087
-100,785
-86,653
-52,093
7,921
91,1
189,419
292,591
393,32
484,586
559,25
608,272
620,271
590,857
522,395
421,541
300,847
172,176
45,828
-65,29
-149,899
-202,544
-221,493
-211,393
-183,776
-148,156
-114,996
-95,612
-92,73
-105,773
-129,069
-150,512
-164,366
-169,342
-167,281
-164,613
-163,714
-163,888
-164,285
-162,778
-158,95
-153,902
-148,34
-143,042
-138,65
-135,266
-132,934
-131,689
-131,349
-131,765
-132,856
-134,489
-136,53
-138,862
-141,345
-143,858
-146,285
-148,481
-150,301
-151,614
-152,336
-152,447
-151,946
-150,846
-149,184
-147
-144,362
-141,368
-138,091
-134,595
-130,95
-127,22
-123,498
-119,904
-116,534
-113,459
-110,728
-108,345
-106,317
-104,658
-103,354
-102,387
-101,722
-101,309
-101,128
-101,19
-101,494
-102,036
-102,79
-103,697
-104,721
-105,849
-107,073
-108,402
-109,832
-111,33
-112,878
-114,462
-116,059
-117,651
-119,182
-120,553
-121,685
-122,507
-122,966
-123,036
-122,671
-121,806
-120,379
-118,329
-115,62
-112,249
-108,222
-103,551
-98,269
-92,43
-86,12
-79,473
-72,614
-65,655
-58,702
-51,849
-45,206
-38,906
-33,085
-27,871
-23,365
-19,64
-16,752
-14,745
-13,641
-13,436
-14,096
-15,551
-17,728
-20,563
-23,993
-27,952
-32,359
-37,109
-42,087
-47,186
-52,318
-57,41
-62,404
-67,244
-71,889
-76,315
-80,518
-84,51
-88,306
-91,915
-95,341
-98,596
-101,701
-104,691
-107,609
-110,488
-113,351
-116,212
-119,082
-121,968
-124,872
-127,788
-130,699
-133,586
-136,431
-139,22
-141,941
-144,583
-147,127
-149,554
-151,841
-153,973
-155,941
-157,737
-159,358
-160,8
-162,065
-163,155
-164,081
-164,851
-165,473
-165,953
-166,297
-166,511
-166,606
-166,588
-166,468
-166,252
-165,947
-165,56
-165,096
-164,562
-163,963
-163,302
-162,583
-161,809
-160,983
-160,11
-159,193
-158,235
-157,24
-156,21
-155,148
-154,056
-152,936
-151,79
-150,619
-149,425
-148,21
-146,973
-145,717
-144,443
-143,15
-141,841
-140,515
-139,175
-137,82
-136,452
-135,071
-133,68
-132,279
-130,869
-129,453
-128,031
-126,605
-125,177
-123,748
-122,319
-120,894
-119,473
-118,058
-116,654
-115,26
-113,881
-112,516
-111,168
-109,837
-108,524
-107,23
-105,954
-104,695
-103,453
-102,226
-101,013
-99,813
-98,623
-97,442
-96,268
-95,098
-93,928
-92,755
-91,574
-90,379
-89,165
-87,928
-86,66
-85,357
-84,012
-82,62
-81,177
-79,678
-78,116
-76,483
-74,77
-72,967
-71,072
-69,081
-66,993
-64,81
-62,537
-60,185
-57,771
-55,309
-52,815
-50,296
-47,757
-45,205
-42,651
-40,103
-37,574
-35,072
-32,6
-30,162
-27,766
-25,404
-23,063
-20,715
-18,316
-15,827
-13,221
-10,474
-7,573
-4,509
-1,277
2,12
5,669
9,356
13,167
17,098
21,15
25,305
29,529
33,766
37,938
41,975
45,815
49,398
52,672
55,594
58,135
60,287
62,057
63,448
64,439
64,975
64,983
64,41
63,231
61,46
59,123
56,225
52,775
48,798
44,317
39,38
33,977
27,976
21,367
14,277
6,948
-0,12
-6,433
-11,658
-15,276
-16,652
-15,682
-12,605
-7,983
-3,063
1,078
3,647
3,303
-1,18
-8,98
-17,985
-25,863
-29,748
-29,92
-28,367
-23,12
-9,706
18,536
68,627
141,419
232,15
333,786
438,944
540,752
631,255
701,878
741,24
738,021
688,617
593,439
460,686
309,183
157,997
28,152
-63,002
-112,259
-124,179
-110,303
-84,893
-55,581
-27,287
-3,945
12,443
19,13
16,35
9,215
2,268
-1,599
-1,994
-2,209
-4,122
-7,147
-10,208
-11,47
-10,222
-7,221
-3,239
1,033
4,998
8,281
10,69
12,155
12,788
12,847
12,51
11,882
11,078
10,222
9,417
8,754
8,285
8,009
7,958
8,188
8,726
9,582
10,725
12,08
13,58
15,171
16,801
18,431
20,027
21,55
22,98
24,314
25,555
26,727
27,839
28,884
29,868
30,803
31,722
32,679
33,718
34,869
36,159
37,608
39,23
41,042
43,044
45,216
47,532
49,955
52,458
55,031
57,657
60,324
63,011
65,692
68,35
70,977
73,564
76,101
78,58
80,988
83,324
85,593
87,804
89,969
92,092
94,172
96,208
98,197
100,133
102,012
103,825
105,559
107,203
108,747
110,183
111,503
112,699
113,759
114,672
115,43
116,022
116,442
116,684
116,743
116,614
116,295
115,786
115,088
114,202
113,128
111,868
110,425
108,802
107,001
105,028
102,886
100,581
98,12
95,508
92,755
89,868
86,856
83,727
80,493
77,162
73,744
70,251
66,692
63,079
59,421
55,73
52,016
48,289
44,558
40,834
37,125
33,44
29,788
26,175
22,609
19,097
15,644
12,258
8,943
5,703
2,545
-0,53
-3,516
-6,41
-9,21
-11,913
-14,518
-17,023
-19,427
-21,729
-23,93
-26,029
-28,028
-29,927
-31,727
-33,432
-35,041
-36,559
-37,986
-39,325
-40,58
-41,752
-42,845
-43,861
-44,804
-45,677
-46,482
-47,222
-47,9
-48,52
-49,083
-49,593
-50,052
-50,463
-50,829
-51,151
-51,432
-51,675
-51,881
-52,052
-52,19
-52,296
-52,372
-52,417
-52,433
-52,421
-52,379
-52,31
-52,212
-52,087
-51,934
-51,753
-51,545
-51,308
-51,044
-50,752
-50,431
-50,082
-49,706
-49,301
-48,868
-48,407
-47,92
-47,405
-46,863
-46,296
-45,702
-45,083
-44,44
-43,774
-43,085
-42,376
-41,648
-40,905
-40,147
-39,379
-38,603
-37,822
-37,038
-36,254
-35,474
-34,699
-33,931
-33,172
-32,423
-31,686
-30,963
-30,254
-29,561
-28,885
-28,228
-27,591
-26,973
-26,376
-25,796
-25,234
-24,688
-24,156
-23,636
-23,127
-22,624
-22,127
-21,634
-21,142
-20,647
-20,143
-19,622
-19,075
-18,5
-17,894
-17,258
-16,595
-15,912
-15,22
-14,534
-13,869
-13,237
-12,648
-12,102
-11,604
-11,157
-10,768
-10,451
-10,212
-10,054
-9,969
-9,946
-9,961
-9,986
-9,978
-9,879
-9,638
-9,207
-8,55
-7,657
-6,515
-5,12
-3,46
-1,514
0,732
3,279
6,117
9,221
12,551
16,06
19,674
23,296
26,833
30,191
33,297
36,117
38,615
40,759
42,502
43,761
44,454
44,515
43,898
42,592
40,593
37,873
34,426
30,284
25,48
20,102
14,176
7,591
0,372
-7,312
-15,141
-22,547
-29,04
-34,36
-38,098
-39,711
-39,11
-36,523
-32,659
-28,908
-26,136
-24,855
-26,044
-30,357
-37,615
-46,361
-53,214
-55,26
-51,176
-41,017
-26,188
-3,825
30,669
79,562
146,044
225,886
311,04
399,657
486,272
565,688
634,951
680,338
688,39
653,393
571,53
451,895
314,229
176,218
57,834
-25,78
-72,895
-87,434
-81,047
-69,092
-58,809
-52,748
-48,873
-42,056
-32,221
-21,612
-12,566
-8,065
-8,295
-11,554
-16,504
-21,328
-24,398
-25,197
-23,528
-19,494
-13,708
-6,807
0,652
7,975
14,481
19,818
23,829
26,493
27,954
28,329
27,716
26,273
24,189
21,615
18,673
15,484
12,147
8,796
5,592
2,651
0,048
-2,168
-3,97
-5,332
-6,221
-6,625
-6,564
-6,058
-5,144
-3,858
-2,232
-0,32
1,81
4,081
6,411
8,739
11,031
13,261
15,412
17,469
19,414
21,242
22,961
24,576
26,09
27,508
28,827
30,059
31,221
32,334
33,421
34,498
35,572
36,649
37,736
38,832
39,941
41,06
42,181
43,298
44,411
45,516
46,612
47,697
48,763
49,804
50,812
51,781
52,704
53,574
54,383
55,123
55,79
56,375
56,875
57,283
57,593
57,798
57,891
57,865
57,715
57,435
57,018
56,46
55,757
54,905
53,902
52,746
51,436
49,972
48,353
46,583
44,661
42,593
40,381
38,03
35,545
32,934
30,202
27,359
24,413
21,373
18,249
15,053
11,793
8,482
5,13
1,749
-1,65
-5,056
-8,458
-11,845
-15,207
-18,534
-21,817
-25,046
-28,213
-31,312
-34,334
-37,273
-40,125
-42,884
-45,546
-48,109
-50,569
-52,925
-55,177
-57,323
-59,366
-61,305
-63,144
-64,885
-66,531
-68,087
-69,557
-70,946
-72,26
-73,504
-74,684
-75,807
-76,878
-77,903
-78,888
-79,839
-80,76
-81,658
-82,536
-83,399
-84,25
-85,093
-85,93
-86,763
-87,594
-88,425
-89,256
-90,087
-90,918
-91,749
-92,577
-93,402
-94,22
-95,029
-95,827
-96,609
-97,372
-98,112
-98,824
-99,504
-100,146
-100,746
-101,3
-101,801
-102,245
-102,629
-102,946
-103,195
-103,371
-103,472
-103,496
-103,441
-103,307
-103,092
-102,798
-102,424
-101,974
-101,447
-100,848
-100,179
-99,443
-98,645
-97,789
-96,881
-95,925
-94,926
-93,892
-92,827
-91,738
-90,631
-89,514
-88,392
-87,273
-86,165
-85,073
-84,005
-82,968
-81,967
-81,008
-80,097
-79,237
-78,434
-77,689
-77,004
-76,38
-75,817
-75,317
-74,878
-74,497
-74,174
-73,905
-73,688
-73,52
-73,396
-73,311
-73,259
-73,233
-73,228
-73,235
-73,248
-73,26
-73,263
-73,251
-73,218
-73,157
-73,061
-72,92
-72,724
-72,464
-72,134
-71,732
-71,257
-70,713
-70,105
-69,443
-68,74
-68,011
-67,267
-66,517
-65,762
-65,01
-64,266
-63,543
-62,857
-62,221
-61,64
-61,116
-60,642
-60,205
-59,785
-59,353
-58,864
-58,281
-57,571
-56,71
-55,695
-54,522
-53,188
-51,681
-49,977
-48,058
-45,916
-43,552
-40,981
-38,233
-35,34
-32,363
-29,379
-26,465
-23,703
-21,147
-18,83
-16,782
-15,033
-13,635
-12,685
-12,274
-12,486
-13,385
-14,989
-17,319
-20,407
-24,254
-28,839
-34,125
-40,011
-46,477
-53,601
-61,35
-69,586
-77,976
-85,923
-92,909
-98,564
-102,392
-103,896
-102,928
-99,598
-94,67
-89,523
-85,164
-82,5
-82,645
-86,135
-92,835
-101,392
-108,401
-110,842
-106,915
-95,991
-78,996
-54,083
-18,182
31,48
98,055
179,427
271,12
368,595
463,066
545,172
605,542
631,992
616,361
557,545
457,596
327,085
184,002
45,515
-69,026
-145,271
-181,849
-183,022
-160,121
-127,677
-94,782
-69,5
-56,219
-54,124
-60,871
-70,066
-76,018
-77,308
-74,632
-71,727
-71,226
-72,385
-73,823
-73,64
-70,901
-66,289
-60,604
-54,529
-48,659
-43,458
-39,209
-36,063
-34,013
-32,846
-32,387
-32,542
-33,168
-34,11
-35,233
-36,383
-37,432
-38,308
-38,925
-39,196
-39,087
-38,572
-37,643
-36,317
-34,611
-32,551
-30,188
-27,574
-24,759
-21,797
-18,741
-15,661
-12,644
-9,761
-7,061
-4,567
-2,267
-0,15
1,788
3,562
5,188
6,688
8,096
9,435
10,719
11,97
13,214
14,489
15,851
17,334
18,951
20,7
22,556
24,502
26,524
28,6
30,707
32,826
34,938
37,042
39,15
41,265
43,385
45,501
47,6
49,686
51,778
53,89
56,051
58,282
60,604
63,059
65,681
68,491
71,506
74,714
78,091
81,617
85,266
89,004
92,791
96,571
100,276
103,854
107,256
110,434
113,345
115,924
118,108
119,853
121,122
121,891
122,153
121,9
121,127
119,86
118,13
115,987
113,497
110,704
107,639
104,334
100,806
97,084
93,21
89,213
85,122
80,976
76,805
72,652
68,566
64,566
60,663
56,856
53,125
49,467
45,898
42,436
39,113
35,969
33,022
30,292
27,8
25,541
23,504
21,664
19,972
18,401
16,936
15,567
14,299
13,133
12,054
11,047
10,088
9,143
8,188
7,2
6,158
5,058
3,908
2,726
1,551
0,412
-0,671
-1,685
-2,623
-3,484
-4,261
-4,948
-5,542
-6,031
-6,405
-6,658
-6,778
-6,766
-6,624
-6,361
-5,995
-5,541
-5,014
-4,427
-3,786
-3,096
-2,363
-1,59
-0,778
0,066
0,941
1,848
2,782
3,743
4,724
5,718
6,724
7,735
8,754
9,781
10,813
11,843
12,871
13,892
14,907
15,918
16,906
17,855
18,752
19,581
20,338
21,021
21,621
22,133
22,548
22,853
23,048
23,131
23,088
22,912
22,59
22,104
21,47
20,7
19,803
18,791
17,668
16,434
15,099
13,675
12,167
10,584
8,932
7,212
5,442
3,639
1,82
0,008
-1,797
-3,596
-5,381
-7,151
-8,895
-10,604
-12,276
-13,91
-15,496
-17,024
-18,485
-19,865
-21,165
-22,382
-23,514
-24,559
-25,507
-26,351
-27,087
-27,712
-28,222
-28,611
-28,87
-28,992
-28,983
-28,847
-28,592
-28,228
-27,766
-27,221
-26,616
-25,974
-25,313
-24,647
-23,985
-23,339
-22,727
-22,169
-21,681
-21,271
-20,932
-20,658
-20,438
-20,256
-20,084
-19,875
-19,573
-19,134
-18,53
-17,743
-16,764
-15,571
-14,138
-12,444
-10,479
-8,255
-5,796
-3,126
-0,276
2,71
5,761
8,779
11,66
14,322
16,711
18,79
20,515
21,815
22,601
22,793
22,334
21,201
19,394
16,9
13,707
9,831
5,321
0,266
-5,227
-11,154
-17,598
-24,53
-31,837
-39,246
-46,254
-52,429
-57,438
-60,755
-61,866
-60,694
-57,303
-52,237
-46,878
-42,401
-39,862
-40,887
-45,576
-52,111
-59,298
-64,774
-68,094
-72,984
-78,968
-83,065
-78,395
-52,048
1,655
82,855
186,763
300,209
413,397
515,148
592,366
637,695
642,328
604,671
530,586
424,692
298,742
165,256
37,151
-67,194
-137,181
-169,736
-168,929
-148,59
-119,663
-90,093
-66,306
-49,035
-40,471
-40,864
-45,687
-52,364
-57,448
-59,308
-60,739
-62,7
-65,223
-67,995
-69,041
-67,674
-64,449
-59,914
-54,918
-50,181
-46,106
-42,95
-40,842
-39,724
-39,394
-39,698
-40,531
-41,753
-43,238
-44,869
-46,525
-48,119
-49,6
-50,894
-51,915
-52,603
-52,912
-52,827
-52,36
-51,529
-50,354
-48,867
-47,103
-45,097
-42,887
-40,512
-38,008
-35,418
-32,785
-30,151
-27,557
-25,033
-22,601
-20,27
-18,046
-15,926
-13,905
-11,976
-10,128
-8,353
-6,645
-4,998
-3,405
-1,861
-0,357
1,114
2,561
3,99
5,406
6,813
8,214
9,612
11,006
12,397
13,785
15,17
16,552
17,933
19,313
20,692
22,069
23,442
24,812
26,174
27,525
28,862
30,179
31,47
32,73
33,952
35,13
36,256
37,322
38,322
39,246
40,087
40,838
41,488
42,032
42,462
42,769
42,948
42,993
42,898
42,657
42,268
41,725
41,027
40,172
39,157
37,983
36,649
35,157
33,508
31,706
29,754
27,656
25,419
23,048
20,551
17,936
15,21
12,382
9,464
6,463
3,391
0,257
-2,926
-6,149
-9,401
-12,671
-15,948
-19,222
-22,483
-25,721
-28,927
-32,093
-35,21
-38,271
-41,267
-44,192
-47,041
-49,807
-52,485
-55,072
-57,562
-59,953
-62,242
-64,427
-66,506
-68,479
-70,344
-72,103
-73,756
-75,304
-76,748
-78,09
-79,332
-80,476
-81,525
-82,482
-83,348
-84,126
-84,82
-85,431
-85,962
-86,415
-86,792
-87,096
-87,327
-87,488
-87,58
-87,605
-87,563
-87,456
-87,284
-87,049
-86,752
-86,393
-85,973
-85,492
-84,952
-84,352
-83,694
-82,978
-82,204
-81,375
-80,489
-79,549
-78,557
-77,513
-76,419
-75,279
-74,094
-72,867
-71,603
-70,305
-68,977
-67,623
-66,248
-64,859
-63,46
-62,056
-60,655
-59,262
-57,882
-56,524
-55,192
-53,893
-52,633
-51,417
-50,253
-49,145
-48,1
-47,122
-46,216
-45,387
-44,639
-43,975
-43,4
-42,913
-42,519
-42,217
-42,008
-41,892
-41,866
-41,929
-42,076
-42,305
-42,61
-42,987
-43,43
-43,932
-44,488
-45,09
-45,732
-46,405
-47,1
-47,807
-48,518
-49,222
-49,91
-50,571
-51,193
-51,767
-52,285
-52,738
-53,115
-53,405
-53,596
-53,681
-53,654
-53,513
-53,258
-52,891
-52,415
-51,842
-51,189
-50,47
-49,698
-48,883
-48,031
-47,152
-46,261
-45,372
-44,5
-43,65
-42,821
-42,012
-41,216
-40,42
-39,6
-38,72
-37,737
-36,618
-35,341
-33,892
-32,265
-30,453
-28,447
-26,242
-23,843
-21,26
-18,516
-15,633
-12,642
-9,591
-6,546
-3,593
-0,821
1,703
3,932
5,825
7,354
8,497
9,23
9,542
9,43
8,891
7,918
6,489
4,597
2,255
-0,493
-3,557
-6,872
-10,399
-14,112
-17,995
-22,022
-26,157
-30,419
-34,897
-39,594
-44,405
-49,123
-53,351
-56,723
-58,967
-59,704
-58,483
-55,159
-49,841
-42,873
-35,306
-28,265
-22,617
-19,722
-20,066
-22,449
-25,768
-28,509
-30,786
-35,49
-42,598
-48,945
-45,889
-21,038
29,978
105,604
196,761
289,082
378,324
462,818
540,219
609,516
657,611
668,581
634,757
552,017
429,3
286,807
142,879
18,271
-70,772
-121,631
-137,505
-130,48
-117,161
-105,425
-97,835
-91,88
-81,512
-66,299
-49,336
-33,837
-23,311
-18,394
-17,535
-19,424
-22,589
-25,609
-27,474
-27,572
-25,759
-22,335
-17,875
-12,876
-7,755
-3,011
0,907
3,785
5,585
6,423
6,518
6,038
5,121
3,936
2,649
1,396
0,282
-0,628
-1,297
-1,683
-1,761
-1,528
-1,009
-0,251
0,706
1,839
3,138
4,593
6,178
7,864
9,616
11,403
13,197
14,967
16,68
18,308
19,841
21,284
22,66
24,002
25,332
26,654
27,962
29,249
30,515
31,763
32,997
34,214
35,415
36,608
37,806
39,025
40,271
41,544
42,836
44,135
45,439
46,751
48,079
49,43
50,807
52,214
53,654
55,132
56,65
58,205
59,788
61,389
63
64,615
66,228
67,834
69,423
70,986
72,512
73,992
75,415
76,772
78,05
79,238
80,324
81,3
82,157
82,888
83,485
83,94
84,247
84,4
84,394
84,224
83,887
83,379
82,698
81,844
80,817
79,619
78,252
76,72
75,027
73,18
71,184
69,048
66,779
64,386
61,879
59,267
56,56
53,77
50,906
47,979
45,001
41,982
38,934
35,868
32,794
29,722
26,664
23,628
20,624
17,661
14,746
11,889
9,096
6,373
3,728
1,165
-1,312
-3,697
-5,989
-8,184
-10,28
-12,278
-14,175
-15,972
-17,669
-19,267
-20,768
-22,171
-23,48
-24,695
-25,82
-26,856
-27,806
-28,673
-29,458
-30,165
-30,797
-31,355
-31,842
-32,262
-32,616
-32,908
-33,14
-33,314
-33,433
-33,499
-33,514
-33,481
-33,401
-33,277
-33,11
-32,902
-32,653
-32,367
-32,044
-31,685
-31,292
-30,866
-30,41
-29,924
-29,41
-28,869
-28,305
-27,719
-27,114
-26,491
-25,853
-25,204
-24,547
-23,884
-23,218
-22,553
-21,893
-21,239
-20,595
-19,965
-19,35
-18,755
-18,182
-17,633
-17,111
-16,619
-16,159
-15,733
-15,343
-14,991
-14,679
-14,409
-14,181
-13,998
-13,859
-13,766
-13,72
-13,719
-13,764
-13,853
-13,986
-14,16
-14,373
-14,622
-14,903
-15,213
-15,547
-15,903
-16,276
-16,661
-17,055
-17,455
-17,856
-18,256
-18,651
-19,034
-19,402
-19,751
-20,075
-20,371
-20,632
-20,853
-21,03
-21,16
-21,24
-21,263
-21,226
-21,12
-20,941
-20,689
-20,365
-19,973
-19,519
-19,012
-18,466
-17,901
-17,336
-16,787
-16,266
-15,781
-15,341
-14,959
-14,647
-14,419
-14,278
-14,221
-14,243
-14,332
-14,468
-14,621
-14,748
-14,795
-14,722
-14,494
-14,091
-13,499
-12,707
-11,704
-10,485
-9,051
-7,411
-5,581
-3,58
-1,439
0,792
3,047
5,237
7,272
9,083
10,613
11,819
12,672
13,149
13,235
12,926
12,222
11,109
9,563
7,561
5,096
2,201
-1,063
-4,625
-8,432
-12,445
-16,632
-20,972
-25,438
-30,054
-34,93
-40,075
-45,39
-50,672
-55,51
-59,471
-62,235
-63,387
-62,431
-59,29
-54,159
-47,408
-40,178
-33,779
-29,231
-27,857
-30,065
-34,55
-39,95
-45,374
-51,333
-59,234
-68,017
-72,248
-61,425
-26,704
33,326
113,979
202,996
290,016
374,287
455,653
533,825
604,734
652,662
662,177
625,673
540,916
418,552
278,218
137,924
17,088
-70,33
-122,307
-141,529
-136,605
-118,553
-93,11
-65,753
-42,34
-26,545
-22,052
-28,198
-38,319
-46,726
-50,103
-48,405
-46,012
-45,653
-47,061
-49,157
-49,84
-48,201
-44,978
-40,932
-36,715
-32,871
-29,75
-27,553
-26,405
-26,241
-26,824
-27,991
-29,642
-31,657
-33,897
-36,222
-38,485
-40,563
-42,38
-43,839
-44,838
-45,313
-45,225
-44,58
-43,418
-41,8
-39,778
-37,408
-34,74
-31,818
-28,698
-25,436
-22,089
-18,728
-15,422
-12,245
-9,277
-6,575
-4,166
-2,055
-0,215
1,399
2,826
4,099
5,249
6,295
7,263
8,176
9,05
9,905
10,769
11,67
12,654
13,757
14,997
16,379
17,892
19,508
21,207
22,973
24,784
26,624
28,477
30,322
32,147
33,946
35,711
37,431
39,096
40,694
42,223
43,686
45,09
46,444
47,759
49,037
50,286
51,52
52,753
54,01
55,315
56,674
58,088
59,552
61,043
62,541
64,015
65,418
66,718
67,883
68,885
69,704
70,323
70,708
70,828
70,64
70,09
69,151
67,803
66,035
63,86
61,301
58,392
55,191
51,748
48,1
44,285
40,328
36,251
32,09
27,881
23,664
19,493
15,407
11,44
7,623
3,967
0,476
-2,857
-6,061
-9,158
-12,162
-15,08
-17,915
-20,661
-23,324
-25,904
-28,401
-30,824
-33,179
-35,472
-37,709
-39,892
-42,016
-44,073
-46,045
-47,917
-49,68
-51,328
-52,859
-54,274
-55,575
-56,765
-57,851
-58,838
-59,73
-60,53
-61,238
-61,858
-62,394
-62,849
-63,229
-63,541
-63,788
-63,974
-64,102
-64,173
-64,187
-64,145
-64,045
-63,884
-63,66
-63,374
-63,022
-62,606
-62,122
-61,572
-60,954
-60,268
-59,513
-58,69
-57,797
-56,835
-55,804
-54,703
-53,534
-52,297
-50,995
-49,629
-48,201
-46,714
-45,173
-43,579
-41,938
-40,254
-38,531
-36,775
-34,992
-33,187
-31,368
-29,541
-27,714
-25,895
-24,094
-22,317
-20,572
-18,869
-17,214
-15,615
-14,078
-12,61
-11,214
-9,898
-8,664
-7,518
-6,463
-5,502
-4,637
-3,869
-3,201
-2,632
-2,161
-1,784
-1,498
-1,301
-1,187
-1,15
-1,186
-1,288
-1,45
-1,666
-1,931
-2,236
-2,569
-2,918
-3,271
-3,62
-3,957
-4,276
-4,574
-4,85
-5,11
-5,364
-5,621
-5,888
-6,167
-6,456
-6,755
-7,066
-7,395
-7,745
-8,122
-8,522
-8,945
-9,39
-9,843
-10,281
-10,667
-10,951
-11,088
-11,043
-10,788
-10,303
-9,573
-8,592
-7,358
-5,878
-4,155
-2,188
0,024
2,482
5,163
8,025
11,006
14,028
17,015
19,9
22,617
25,102
27,31
29,219
30,815
32,093
33,021
33,523
33,522
32,951
31,767
29,971
27,574
24,583
21,021
16,92
12,307
7,245
1,708
-4,427
-11,18
-18,489
-26,117
-33,539
-40,245
-45,828
-49,722
-51,419
-50,782
-47,774
-43,055
-38,109
-34,168
-32,608
-34,286
-38,393
-43,738
-49,14
-54,341
-61,501
-71,868
-83,069
-87,768
-73,726
-31,676
40,41
136,536
244,23
353,677
459,02
556,256
641,147
703,287
729,108
707,38
632,596
510,831
359,403
201,727
64,023
-34,165
-87,487
-101,051
-90,588
-73,064
-55,741
-43,073
-33,32
-22,826
-14,664
-8,573
-4,835
-5,091
-6,824
-10,359
-16,187
-22,651
-29,078
-33,945
-36,013
-35,467
-32,71
-28,393
-23,213
-17,756
-12,679
-8,385
-5,013
-2,535
-0,735
0,524
1,314
1,771
2,025
2,19
2,35
2,517
2,683
2,89
3,189
3,634
4,262
5,049
5,955
6,95
7,999
9,083
10,182
11,259
12,29
13,268
14,196
15,1
15,992
16,861
17,701
18,502
19,27
20,039
20,838
21,685
22,6
23,591
24,668
25,849
27,137
28,516
29,96
31,433
32,909
34,377
35,828
37,253
38,64
39,967
41,222
42,405
43,511
44,539
45,484
46,34
47,108
47,799
48,427
49,01
49,557
50,072
50,56
51,022
51,46
51,875
52,261
52,61
52,916
53,172
53,373
53,515
53,592
53,592
53,508
53,331
53,052
52,666
52,164
51,54
50,79
49,91
48,895
47,745
46,459
45,032
43,465
41,754
39,901
37,903
35,761
33,475
31,047
28,479
25,773
22,933
19,964
16,87
13,657
10,333
6,902
3,374
-0,244
-3,944
-7,717
-11,553
-15,444
-19,38
-23,35
-27,347
-31,358
-35,377
-39,392
-43,395
-47,378
-51,333
-55,251
-59,124
-62,947
-66,711
-70,41
-74,038
-77,589
-81,057
-84,437
-87,724
-90,914
-94,003
-96,989
-99,868
-102,639
-105,3
-107,849
-110,287
-112,612
-114,824
-116,925
-118,915
-120,796
-122,569
-124,236
-125,8
-127,263
-128,627
-129,895
-131,07
-132,153
-133,147
-134,055
-134,878
-135,618
-136,278
-136,859
-137,365
-137,796
-138,157
-138,449
-138,674
-138,836
-138,935
-138,975
-138,958
-138,887
-138,763
-138,59
-138,37
-138,106
-137,803
-137,462
-137,088
-136,684
-136,252
-135,795
-135,317
-134,819
-134,303
-133,771
-133,226
-132,672
-132,113
-131,552
-130,994
-130,445
-129,911
-129,396
-128,907
-128,448
-128,022
-127,634
-127,288
-126,988
-126,742
-126,555
-126,429
-126,365
-126,363
-126,416
-126,517
-126,653
-126,803
-126,952
-127,079
-127,169
-127,211
-127,19
-127,1
-126,936
-126,688
-126,355
-125,94
-125,449
-124,899
-124,317
-123,73
-123,18
-122,723
-122,412
-122,304
-122,453
-122,898
-123,672
-124,791
-126,253
-128,053
-130,172
-132,571
-135,202
-137,997
-140,861
-143,703
-146,408
-148,841
-150,865
-152,327
-153,08
-153,001
-151,984
-149,954
-146,873
-142,722
-137,508
-131,263
-124,044
-115,939
-107,073
-97,574
-87,589
-77,303
-66,906
-56,617
-46,66
-37,236
-28,528
-20,689
-13,829
-8,032
-3,378
0,067
2,256
3,166
2,821
1,267
-1,447
-5,252
-10,062
-15,76
-22,199
-29,24
-36,807
-44,914
-53,515
-62,471
-71,516
-80,182
-87,997
-94,57
-99,404
-101,906
-101,815
-99,21
-94,51
-88,988
-84,09
-80,951
-81,099
-84,954
-91,089
-98,311
-104,908
-111,077
-119,953
-130,774
-139,446
-136,052
-106,282
-45,345
44,276
152,236
262,258
367,521
465,771
555,31
634,402
693,629
720,616
706,491
648,91
551,746
424,386
281,58
138,629
12,933
-79,183
-131,061
-145,146
-132,276
-107,982
-84,504
-67,03
-55,995
-49,458
-43,939
-38,921
-34,859
-31,604
-31,314
-34,325
-39,582
-46,303
-51,88
-54,682
-54,649
-51,775
-46,75
-40,359
-32,967
-25,145
-17,59
-10,654
-4,474
0,993
5,955
10,568
14,928
19,139
23,315
27,52
31,758
35,983
40,121
44,109
47,899
51,455
54,75
57,752
60,424
62,706
64,523
65,794
66,444
66,427
65,723
64,327
62,255
59,558
56,306
52,604
48,584
44,371
40,074
35,804
31,672
27,808
24,363
21,486
19,296
17,885
17,324
17,672
18,98
21,279
24,553
28,742
33,745
39,456
45,774
52,585
59,759
67,141
74,563
81,869
88,939
95,676
101,991
107,792
112,984
117,48
121,233
124,238
126,511
128,083
128,991
129,29
129,063
128,422
127,477
126,317
125,002
123,572
122,071
120,549
119,056
117,643
116,338
115,151
114,088
113,149
112,324
111,591
110,904
110,198
109,422
108,539
107,53
106,388
105,106
103,674
102,086
100,34
98,441
96,393
94,2
91,864
89,396
86,812
84,138
81,406
78,645
75,874
73,107
70,356
67,628
64,935
62,279
59,661
57,084
54,549
52,061
49,627
47,249
44,928
42,663
40,45
38,287
36,172
34,102
32,075
30,088
28,142
26,234
24,367
22,538
20,748
18,993
17,272
15,582
13,919
12,281
10,666
9,072
7,499
5,948
4,421
2,92
1,448
0,009
-1,394
-2,755
-4,073
-5,344
-6,565
-7,729
-8,828
-9,857
-10,812
-11,692
-12,494
-13,219
-13,869
-14,45
-14,972
-15,445
-15,878
-16,277
-16,644
-16,979
-17,283
-17,557
-17,803
-18,016
-18,185
-18,294
-18,328
-18,268
-18,1
-17,799
-17,328
-16,655
-15,752
-14,599
-13,186
-11,506
-9,555
-7,34
-4,872
-2,183
0,681
3,665
6,709
9,75
12,733
15,59
18,233
20,582
22,566
24,114
25,174
25,697
25,635
24,96
23,666
21,771
19,323
16,381
13,019
9,314
5,337
1,169
-3,089
-7,344
-11,508
-15,493
-19,225
-22,631
-25,628
-28,154
-30,172
-31,665
-32,642
-33,13
-33,164
-32,782
-32,028
-30,948
-29,594
-28,009
-26,229
-24,286
-22,201
-20,003
-17,731
-15,417
-13,086
-10,755
-8,437
-6,142
-3,877
-1,649
0,548
2,726
4,884
7,008
9,071
11,027
12,826
14,425
15,776
16,839
17,583
17,984
18,04
17,763
17,16
16,227
14,928
13,202
11,007
8,325
5,163
1,535
-2,548
-7,074
-12,013
-17,318
-22,956
-28,961
-35,465
-42,522
-50,086
-57,986
-65,827
-73,196
-79,749
-85,002
-88,377
-89,657
-88,879
-86,383
-83,335
-80,982
-80,296
-82,739
-88,644
-96,498
-105,175
-113,062
-120,285
-130,139
-142,267
-152,824
-153,028
-129,626
-76,965
3,331
103,638
210,54
316,014
416,23
504,677
575,067
618,892
625,315
592,287
523,726
424,381
304,762
174,981
45,522
-67,384
-151,002
-198,714
-210,877
-197,922
-171,401
-141,427
-116,333
-98,605
-90,525
-91,592
-96,763
-103,211
-107,774
-109,239
-110,668
-113,128
-116,343
-119,723
-121,188
-119,921
-116,517
-111,613
-106,063
-100,639
-95,85
-92
-89,255
-87,598
-86,804
-86,706
-87,2
-88,127
-89,351
-90,755
-92,207
-93,615
-94,925
-96,05
-96,89
-97,375
-97,451
-97,098
-96,334
-95,177
-93,659
-91,817
-89,693
-87,329
-84,759
-82,017
-79,136
-76,158
-73,121
-70,072
-67,057
-64,119
-61,297
-58,62
-56,102
-53,744
-51,537
-49,466
-47,524
-45,707
-44,011
-42,447
-41,019
-39,736
-38,617
-37,671
-36,887
-36,247
-35,711
-35,233
-34,786
-34,35
-33,911
-33,466
-33,002
-32,508
-31,984
-31,415
-30,777
-30,041
-29,152
-28,072
-26,786
-25,295
-23,622
-21,808
-19,875
-17,841
-15,73
-13,546
-11,295
-8,976
-6,565
-4,056
-1,465
1,184
3,837
6,444
8,977
11,408
13,722
15,923
18,005
19,962
21,799
23,494
25,02
26,337
27,382
28,102
28,461
28,43
28,003
27,185
25,976
24,39
22,438
20,118
17,43
14,375
10,951
7,176
3,077
-1,305
-5,906
-10,654
-15,472
-20,27
-24,978
-29,534
-33,889
-38,009
-41,855
-45,387
-48,568
-51,361
-53,734
-55,664
-57,128
-58,109
-58,621
-58,694
-58,39
-57,796
-56,989
-56,047
-55,032
-53,994
-52,985
-52,055
-51,243
-50,583
-50,11
-49,857
-49,866
-50,183
-50,827
-51,798
-53,065
-54,567
-56,245
-58,032
-59,87
-61,713
-63,518
-65,248
-66,88
-68,399
-69,786
-71,024
-72,082
-72,924
-73,526
-73,877
-73,983
-73,871
-73,572
-73,126
-72,569
-71,932
-71,24
-70,513
-69,759
-68,982
-68,184
-67,365
-66,535
-65,709
-64,897
-64,106
-63,338
-62,591
-61,858
-61,133
-60,405
-59,66
-58,884
-58,066
-57,199
-56,281
-55,308
-54,275
-53,18
-52,024
-50,812
-49,558
-48,269
-46,942
-45,575
-44,159
-42,7
-41,214
-39,719
-38,239
-36,8
-35,434
-34,178
-33,078
-32,161
-31,433
-30,884
-30,485
-30,224
-30,105
-30,13
-30,297
-30,587
-30,969
-31,405
-31,85
-32,246
-32,51
-32,547
-32,261
-31,587
-30,504
-29,016
-27,146
-24,903
-22,281
-19,287
-15,944
-12,299
-8,402
-4,315
-0,107
4,13
8,256
12,122
15,591
18,563
20,984
22,826
24,064
24,648
24,516
23,62
21,935
19,472
16,25
12,284
7,593
2,233
-3,688
-10,066
-16,792
-23,847
-31,309
-39,121
-47,126
-55,081
-62,545
-69,095
-74,432
-78,06
-79,396
-78,415
-75,302
-70,462
-65,124
-60,412
-57,132
-56,682
-59,49
-64,069
-69,19
-73,941
-78,5
-84,678
-91,792
-94,232
-82,605
-49,229
7,927
84,123
169,359
256,691
343,63
428,348
506,445
568,776
603,585
599,864
555,909
475,914
365,192
236,963
103,367
-22,026
-119,431
-179,83
-202,517
-195,078
-175,402
-154,513
-136,59
-120,962
-102,013
-79,596
-56,715
-36,064
-21,56
-14,215
-12,788
-16,686
-23,844
-31,324
-37,796
-42,573
-45,25
-46,208
-45,575
-42,946
-38,85
-34,592
-30,894
-28,189
-26,623
-25,824
-25,703
-26,507
-28,091
-30,017
-31,961
-33,6
-34,776
-35,594
-36,055
-36,065
-35,613
-34,71
-33,398
-31,77
-29,883
-27,74
-25,36
-22,767
-19,993
-17,097
-14,132
-11,143
-8,176
-5,258
-2,412
0,341
2,985
5,507
7,902
10,176
12,338
14,392
16,342
18,189
19,937
21,596
23,178
24,694
26,152
27,555
28,91
30,225
31,51
32,775
34,028
35,274
36,514
37,752
38,987
40,215
41,431
42,629
43,803
44,955
46,09
47,217
48,348
49,494
50,66
51,845
53,049
54,271
55,514
56,781
58,084
59,437
60,859
62,374
63,992
65,718
67,54
69,43
71,353
73,265
75,131
76,922
78,615
80,185
81,609
82,863
83,914
84,729
85,265
85,472
85,313
84,764
83,821
82,499
80,828
78,854
76,614
74,14
71,461
68,598
65,572
62,406
59,126
55,763
52,355
48,952
45,598
42,331
39,175
36,137
33,214
30,388
27,646
24,982
22,396
19,895
17,49
15,186
12,994
10,924
8,975
7,138
5,398
3,735
2,139
0,615
-0,826
-2,161
-3,368
-4,432
-5,335
-6,068
-6,619
-6,982
-7,154
-7,141
-6,939
-6,535
-5,907
-5,016
-3,842
-2,382
-0,643
1,356
3,586
6,02
8,616
11,323
14,095
16,891
19,68
22,443
25,148
27,755
30,214
32,458
34,439
36,131
37,514
38,582
39,343
39,811
40,022
40,036
39,901
39,658
39,337
38,957
38,546
38,144
37,794
37,548
37,446
37,514
37,775
38,253
38,954
39,883
41,021
42,329
43,778
45,347
47,018
48,783
50,621
52,501
54,398
56,29
58,156
59,986
61,765
63,473
65,101
66,636
68,081
69,451
70,752
71,987
73,171
74,318
75,456
76,63
77,872
79,203
80,646
82,212
83,909
85,747
87,723
89,834
92,073
94,431
96,903
99,484
102,144
104,841
107,517
110,09
112,485
114,639
116,476
117,941
118,987
119,576
119,689
119,308
118,412
116,966
114,925
112,23
108,847
104,761
99,985
94,576
88,58
82,038
75,022
67,585
59,781
51,683
43,279
34,506
25,429
16,197
7,102
-1,341
-8,694
-14,616
-18,616
-20,257
-19,5
-16,439
-11,626
-6,387
-1,846
1,017
0,813
-2,404
-6,912
-11,682
-14,651
-15,202
-16,226
-16,898
-14,417
-3,351
26,682
80,191
157,051
252,983
356,351
457,727
546,194
610,018
643,308
639,259
598,149
526,477
428,415
314,687
195,984
83,364
-6,008
-63,346
-87,344
-84,888
-72,696
-61,314
-55,118
-53,248
-49,122
-41,534
-32,689
-24,717
-21,081
-22,34
-26,701
-33,068
-39,914
-45,48
-49,133
-50,564
-49,634
-46,908
-43
-38,314
-33,425
-28,957
-25,205
-22,311
-20,292
-18,938
-18,092
-17,66
-17,485
-17,425
-17,385
-17,293
-17,122
-16,879
-16,543
-16,076
-15,452
-14,679
-13,786
-12,817
-11,812
-10,808
-9,831
-8,918
-8,102
-7,405
-6,833
-6,379
-6,021
-5,733
-5,494
-5,291
-5,102
-4,895
-4,63
-4,268
-3,779
-3,141
-2,337
-1,349
-0,166
1,217
2,79
4,531
6,412
8,395
10,453
12,564
14,706
16,855
18,992
21,1
23,169
25,199
27,187
29,129
31,026
32,877
34,69
36,475
38,245
40,016
41,798
43,596
45,416
47,258
49,122
51,003
52,893
54,781
56,656
58,507
60,325
62,099
63,82
65,473
67,048
68,531
69,911
71,178
72,322
73,334
74,205
74,929
75,5
75,913
76,162
76,243
76,151
75,882
75,431
74,796
73,973
72,962
71,762
70,372
68,796
67,036
65,097
62,983
60,701
58,258
55,663
52,924
50,052
47,056
43,948
40,741
37,446
34,076
30,644
27,163
23,645
20,103
16,55
12,998
9,459
5,944
2,465
-0,967
-4,342
-7,649
-10,88
-14,024
-17,075
-20,023
-22,863
-25,589
-28,196
-30,681
-33,039
-35,271
-37,373
-39,347
-41,194
-42,914
-44,511
-45,988
-47,35
-48,601
-49,748
-50,797
-51,754
-52,627
-53,424
-54,151
-54,817
-55,428
-55,993
-56,518
-57,011
-57,477
-57,924
-58,356
-58,778
-59,195
-59,613
-60,033
-60,46
-60,896
-61,343
-61,803
-62,278
-62,768
-63,273
-63,789
-64,316
-64,849
-65,387
-65,923
-66,452
-66,968
-67,465
-67,936
-68,377
-68,778
-69,13
-69,423
-69,647
-69,799
-69,876
-69,877
-69,802
-69,656
-69,447
-69,189
-68,896
-68,578
-68,244
-67,896
-67,542
-67,19
-66,853
-66,542
-66,261
-66,006
-65,77
-65,546
-65,322
-65,078
-64,778
-64,379
-63,844
-63,148
-62,279
-61,233
-60,007
-58,598
-57,007
-55,243
-53,335
-51,32
-49,236
-47,119
-45,008
-42,96
-41,054
-39,375
-37,997
-36,972
-36,333
-36,1
-36,29
-36,909
-37,955
-39,404
-41,208
-43,316
-45,684
-48,281
-51,104
-54,131
-57,318
-60,612
-63,944
-67,284
-70,644
-74,03
-77,457
-80,953
-84,499
-88,176
-92,187
-96,583
-101,299
-106,128
-110,589
-114,287
-117,055
-118,512
-118,164
-115,977
-112,186
-107,496
-103,296
-100,721
-100,492
-103,599
-111,051
-121,879
-133,648
-143,833
-148,677
-147,922
-145,129
-139,456
-128,606
-107,463
-65,213
1,112
88,8
193,266
302,517
406,584
496,401
560,68
590,364
577,375
519,301
418,708
284,633
135,274
-10,971
-133,744
-215,972
-255,546
-256,727
-230,127
-192,522
-153,124
-119,358
-99,161
-92,347
-98,301
-113,479
-128,172
-138,304
-142,634
-141,681
-140,424
-140,33
-140,476
-140,278
-137,867
-132,865
-126,309
-118,841
-111,235
-104,201
-97,908
-92,424
-87,803
-83,911
-80,659
-78,059
-76,11
-74,777
-74,024
-73,797
-74,028
-74,674
-75,676
-76,94
-78,367
-79,873
-81,398
-82,909
-84,39
-85,805
-87,107
-88,236
-89,116
-89,691
-89,934
-89,828
-89,377
-88,589
-87,48
-86,076
-84,42
-82,541
-80,463
-78,196
-75,743
-73,118
-70,346
-67,466
-64,527
-61,565
-58,607
-55,671
-52,769
-49,911
-47,101
-44,335
-41,599
-38,884
-36,185
-33,501
-30,834
-28,183
-25,54
-22,895
-20,233
-17,544
-14,825
-12,071
-9,281
-6,458
-3,604
-0,727
2,162
5,051
7,933
10,799
13,644
16,458
19,233
21,959
24,626
27,226
29,749
32,188
34,533
36,777
38,911
40,931
42,83
44,603
46,243
47,746
49,104
50,313
51,369
52,267
53,004
53,577
53,983
54,223
54,295
54,2
53,939
53,514
52,927
52,182
51,283
50,234
49,041
47,709
46,245
44,656
42,949
41,131
39,21
37,194
35,092
32,912
30,663
28,355
25,997
23,598
21,168
18,716
16,252
13,786
11,326
8,881
6,459
4,07
1,72
-0,584
-2,834
-5,027
-7,155
-9,216
-11,204
-13,118
-14,955
-16,713
-18,392
-19,99
-21,509
-22,95
-24,312
-25,599
-26,812
-27,953
-29,026
-30,034
-30,979
-31,866
-32,698
-33,481
-34,218
-34,914
-35,575
-36,206
-36,811
-37,395
-37,963
-38,518
-39,065
-39,607
-40,146
-40,685
-41,224
-41,764
-42,305
-42,847
-43,387
-43,925
-44,456
-44,979
-45,489
-45,984
-46,457
-46,904
-47,319
-47,695
-48,027
-48,308
-48,532
-48,694
-48,786
-48,803
-48,742
-48,597
-48,363
-48,031
-47,593
-47,042
-46,377
-45,598
-44,707
-43,709
-42,612
-41,427
-40,171
-38,856
-37,495
-36,098
-34,665
-33,204
-31,725
-30,241
-28,773
-27,337
-25,941
-24,588
-23,279
-22,004
-20,753
-19,501
-18,212
-16,856
-15,415
-13,881
-12,267
-10,585
-8,839
-7,028
-5,137
-3,153
-1,076
1,087
3,328
5,627
7,955
10,264
12,481
14,538
16,387
18,001
19,381
20,533
21,447
22,091
22,396
22,293
21,722
20,639
19,017
16,822
14,016
10,599
6,6
2,046
-3,012
-8,627
-14,948
-21,959
-29,548
-37,46
-45,168
-52,183
-58,155
-62,53
-64,74
-64,75
-62,697
-59,137
-55,501
-53,081
-52,883
-56,209
-63,046
-71,502
-80,035
-87,214
-92,939
-98,867
-103,874
-102,189
-84,539
-43,282
23,479
109,847
204,198
298,546
389,365
474,757
552,387
613,898
645,587
635,581
579,106
478,271
344,802
197,713
55,08
-64,095
-145,946
-188,543
-195,09
-176,042
-145,481
-112,495
-85,895
-70,64
-66,025
-70,264
-77,138
-80,72
-79,608
-74,631
-69,654
-67,7
-68,364
-69,797
-69,612
-66,678
-61,421
-54,666
-47,244
-39,636
-32,207
-25,474
-19,772
-15,248
-11,92
-9,657
-8,37
-8,016
-8,485
-9,642
-11,362
-13,52
-16,019
-18,772
-21,662
-24,587
-27,476
-30,251
-32,847
-35,19
-37,176
-38,74
-39,85
-40,487
-40,651
-40,347
-39,58
-38,381
-36,799
-34,886
-32,694
-30,26
-27,604
-24,76
-21,764
-18,661
-15,514
-12,361
-9,225
-6,128
-3,081
-0,095
2,819
5,664
8,456
11,206
13,923
16,61
19,263
21,885
24,484
27,071
29,66
32,258
34,868
37,491
40,126
42,772
45,426
48,079
50,719
53,334
55,918
58,463
60,963
63,41
65,796
68,111
70,345
72,49
74,537
76,478
78,304
80,007
81,58
83,018
84,314
85,465
86,463
87,303
87,981
88,49
88,829
88,992
88,977
88,781
88,404
87,846
87,105
86,184
85,084
83,807
82,356
80,735
78,948
77
74,896
72,644
70,251
67,726
65,077
62,313
59,445
56,483
53,438
50,321
47,144
43,918
40,655
37,365
34,062
30,756
27,458
24,181
20,934
17,728
14,574
11,48
8,456
5,51
2,65
-0,116
-2,782
-5,342
-7,79
-10,12
-12,328
-14,41
-16,364
-18,187
-19,879
-21,44
-22,87
-24,172
-25,351
-26,409
-27,352
-28,184
-28,91
-29,537
-30,07
-30,514
-30,875
-31,159
-31,374
-31,528
-31,63
-31,688
-31,713
-31,714
-31,7
-31,68
-31,661
-31,65
-31,651
-31,67
-31,714
-31,789
-31,905
-32,069
-32,284
-32,553
-32,876
-33,25
-33,668
-34,118
-34,584
-35,056
-35,528
-35,996
-36,465
-36,936
-37,413
-37,899
-38,391
-38,889
-39,393
-39,903
-40,416
-40,94
-41,487
-42,074
-42,733
-43,477
-44,314
-45,244
-46,252
-47,324
-48,441
-49,577
-50,713
-51,834
-52,92
-53,956
-54,932
-55,822
-56,603
-57,244
-57,701
-57,943
-57,952
-57,711
-57,221
-56,487
-55,513
-54,312
-52,893
-51,259
-49,424
-47,402
-45,211
-42,878
-40,431
-37,9
-35,33
-32,758
-30,218
-27,746
-25,368
-23,111
-21,012
-19,113
-17,458
-16,095
-15,061
-14,372
-14,041
-14,07
-14,463
-15,22
-16,334
-17,793
-19,587
-21,711
-24,159
-26,918
-29,96
-33,252
-36,762
-40,459
-44,324
-48,334
-52,467
-56,712
-61,063
-65,513
-70,051
-74,654
-79,272
-83,907
-88,612
-93,337
-97,982
-102,333
-106,002
-108,661
-110,063
-109,784
-107,399
-102,891
-96,334
-88,201
-79,696
-71,815
-65,497
-62,228
-62,132
-63,603
-65,648
-66,366
-65,471
-66,261
-68,259
-68,022
-59,029
-30,922
20,509
92,502
178,277
268,952
358,766
444,424
521,018
577,712
599,222
571,866
488,252
354,874
193,145
30,183
-106,253
-196,011
-236,609
-235,68
-206,652
-167,463
-128,015
-95,096
-76,12
-70,584
-77,488
-93,108
-107,48
-116,556
-119,329
-116,639
-113,976
-113,115
-113,206
-113,647
-112,422
-109,019
-104,44
-99,291
-94,3
-90,147
-86,953
-84,739
-83,533
-83,156
-83,449
-84,342
-85,718
-87,438
-89,395
-91,478
-93,578
-95,627
-97,54
-99,21
-100,563
-101,544
-102,127
-102,319
-102,132
-101,584
-100,699
-99,51
-98,051
-96,358
-94,465
-92,408
-90,226
-87,964
-85,666
-83,375
-81,122
-78,93
-76,807
-74,757
-72,776
-70,858
-68,992
-67,166
-65,369
-63,593
-61,832
-60,078
-58,325
-56,563
-54,782
-52,974
-51,131
-49,248
-47,319
-45,342
-43,316
-41,239
-39,112
-36,938
-34,717
-32,451
-30,14
-27,785
-25,388
-22,952
-20,479
-17,973
-15,437
-12,877
-10,298
-7,707
-5,109
-2,512
0,077
2,651
5,202
7,723
10,204
12,639
15,018
17,334
19,579
21,744
23,822
25,805
27,686
29,46
31,12
32,662
34,08
35,373
36,536
37,57
38,472
39,243
39,884
40,395
40,779
41,04
41,179
41,202
41,112
40,917
40,62
40,228
39,747
39,185
38,548
37,846
37,085
36,275
35,423
34,539
33,631
32,708
31,777
30,845
29,918
29,002
28,104
27,229
26,382
25,567
24,789
24,052
23,362
22,721
22,13
21,589
21,093
20,643
20,243
19,899
19,616
19,397
19,242
19,158
19,15
19,222
19,369
19,58
19,84
20,141
20,482
20,868
21,301
21,778
22,287
22,814
23,352
23,891
24,421
24,923
25,371
25,753
26,078
26,37
26,656
26,949
27,253
27,561
27,874
28,198
28,546
28,928
29,347
29,808
30,326
30,929
31,653
32,511
33,492
34,556
35,67
36,813
37,971
39,137
40,293
41,421
42,502
43,53
44,506
45,422
46,259
46,983
47,557
47,96
48,201
48,3
48,278
48,148
47,921
47,617
47,264
46,893
46,518
46,141
45,753
45,355
44,952
44,558
44,188
43,84
43,503
43,166
42,823
42,466
42,077
41,626
41,061
40,338
39,427
38,314
36,997
35,475
33,753
31,846
29,781
27,599
25,339
23,028
20,684
18,337
16,024
13,804
11,768
9,996
8,565
7,552
7,013
6,997
7,539
8,645
10,29
12,429
15,017
18,02
21,409
25,152
29,206
33,508
37,964
42,474
46,934
51,216
55,207
58,798
61,888
64,414
66,349
67,687
68,439
68,61
68,191
67,169
65,525
63,231
60,288
56,711
52,531
47,832
42,693
37,177
31,376
25,345
19,098
12,665
6,001
-1
-8,304
-15,784
-23,184
-29,993
-35,731
-40,033
-42,398
-42,403
-39,99
-35,225
-28,814
-22,185
-16,554
-13,19
-12,615
-14,013
-16,574
-19,229
-22,572
-28,84
-37,073
-44,233
-41,993
-18,253
30,525
103,08
191,915
283,604
374,504
463,489
546,475
619,768
670,618
684,49
656,978
589,476
490,169
373,198
249,768
130,99
30,033
-44,749
-88,764
-103,022
-96,623
-77,885
-54,778
-34,901
-20,781
-15,823
-20,249
-28,791
-38,227
-44,834
-47,137
-48,493
-50,327
-52,689
-55,197
-55,773
-53,568
-49,162
-43,141
-36,328
-29,484
-23,106
-17,524
-12,949
-9,424
-6,802
-5,018
-4,092
-3,957
-4,537
-5,748
-7,453
-9,573
-12,061
-14,826
-17,757
-20,743
-23,676
-26,498
-29,185
-31,699
-33,995
-36,01
-37,663
-38,909
-39,726
-40,103
-40,053
-39,589
-38,728
-37,506
-35,971
-34,17
-32,142
-29,909
-27,48
-24,875
-22,122
-19,263
-16,356
-13,439
-10,538
-7,678
-4,873
-2,138
0,515
3,086
5,586
8,019
10,387
12,687
14,908
17,048
19,109
21,097
23,023
24,892
26,704
28,46
30,159
31,797
33,372
34,874
36,291
37,614
38,833
39,944
40,942
41,82
42,574
43,195
43,678
44,018
44,211
44,254
44,142
43,874
43,449
42,868
42,131
41,241
40,201
39,012
37,678
36,202
34,589
32,843
30,969
28,973
26,862
24,643
22,322
19,907
17,407
14,83
12,183
9,477
6,718
3,917
1,081
-1,78
-4,659
-7,546
-10,433
-13,314
-16,18
-19,024
-21,84
-24,621
-27,36
-30,054
-32,695
-35,281
-37,807
-40,27
-42,667
-44,996
-47,255
-49,443
-51,559
-53,601
-55,57
-57,466
-59,289
-61,04
-62,719
-64,328
-65,868
-67,341
-68,748
-70,091
-71,371
-72,59
-73,748
-74,848
-75,89
-76,876
-77,807
-78,684
-79,509
-80,282
-81,004
-81,676
-82,297
-82,869
-83,391
-83,863
-84,285
-84,656
-84,977
-85,248
-85,468
-85,638
-85,757
-85,827
-85,847
-85,818
-85,74
-85,614
-85,441
-85,223
-84,959
-84,653
-84,306
-83,92
-83,498
-83,043
-82,557
-82,044
-81,506
-80,946
-80,367
-79,773
-79,167
-78,553
-77,935
-77,318
-76,705
-76,1
-75,509
-74,934
-74,379
-73,847
-73,342
-72,865
-72,418
-72,004
-71,623
-71,276
-70,965
-70,689
-70,449
-70,244
-70,074
-69,937
-69,831
-69,756
-69,706
-69,678
-69,668
-69,671
-69,682
-69,695
-69,706
-69,707
-69,693
-69,661
-69,603
-69,513
-69,382
-69,198
-68,953
-68,642
-68,261
-67,809
-67,289
-66,704
-66,065
-65,386
-64,682
-63,962
-63,234
-62,5
-61,764
-61,032
-60,312
-59,615
-58,951
-58,32
-57,724
-57,156
-56,603
-56,043
-55,438
-54,737
-53,895
-52,874
-51,648
-50,204
-48,535
-46,638
-44,513
-42,162
-39,589
-36,799
-33,802
-30,613
-27,263
-23,802
-20,298
-16,845
-13,532
-10,439
-7,631
-5,153
-3,037
-1,303
0,04
0,987
1,529
1,635
1,263
0,369
-1,077
-3,069
-5,569
-8,528
-11,898
-15,624
-19,664
-23,978
-28,529
-33,345
-38,526
-44,077
-49,916
-55,838
-61,428
-66,278
-70,026
-72,164
-72,138
-69,798
-65,218
-58,713
-51,403
-44,462
-38,894
-36,405
-37,459
-40,441
-44,226
-47,258
-49,807
-55,656
-64,706
-72,708
-70,618
-45,3
8,894
90,307
191,227
299,406
408,28
512,982
606,086
679,489
719,561
713,359
657,537
554,949
417,8
266,384
119,759
-2,667
-87,494
-132,446
-141,662
-127,409
-102,049
-74,025
-50,604
-33,418
-23,91
-22,496
-24,841
-28,266
-29,997
-28,811
-27,625
-27,89
-29,68
-32,065
-32,646
-30,425
-25,728
-19,179
-11,725
-4,003
3,597
10,574
16,604
21,59
25,586
28,742
31,148
32,852
33,904
34,401
34,466
34,182
33,617
32,822
31,86
30,822
29,783
28,795
27,881
27,059
26,343
25,766
25,374
25,197
25,268
25,599
26,182
27,01
28,066
29,323
30,754
32,324
34,002
35,768
37,617
39,539
41,524
43,547
45,572
47,57
49,518
51,396
53,198
54,917
56,55
58,104
59,591
61,024
62,418
63,781
65,115
66,426
67,723
69,022
70,344
71,707
73,121
74,594
76,129
77,724
79,376
81,068
82,778
84,482
86,158
87,786
89,355
90,852
92,271
93,599
94,824
95,939
96,942
97,842
98,65
99,383
100,062
100,716
101,389
102,128
102,976
103,967
105,121
106,441
107,921
109,548
111,307
113,164
115,074
116,972
118,777
120,409
121,789
122,82
123,386
123,368
122,649
121,138
118,774
115,519
111,355
106,279
100,3
93,459
85,824
77,491
68,584
59,227
49,551
39,717
29,908
20,316
11,127
2,49
-5,484
-12,696
-19,07
-24,544
-29,069
-32,63
-35,246
-36,948
-37,798
-37,869
-37,253
-36,078
-34,504
-32,691
-30,788
-28,909
-27,139
-25,557
-24,236
-23,232
-22,595
-22,354
-22,521
-23,116
-24,142
-25,579
-27,388
-29,491
-31,79
-34,189
-36,611
-38,997
-41,309
-43,511
-45,57
-47,469
-49,194
-50,738
-52,091
-53,23
-54,135
-54,807
-55,261
-55,536
-55,685
-55,751
-55,768
-55,765
-55,759
-55,764
-55,79
-55,837
-55,897
-55,967
-56,048
-56,152
-56,29
-56,465
-56,672
-56,899
-57,126
-57,34
-57,53
-57,684
-57,794
-57,854
-57,861
-57,818
-57,732
-57,603
-57,434
-57,22
-56,957
-56,643
-56,279
-55,865
-55,406
-54,905
-54,367
-53,797
-53,203
-52,591
-51,965
-51,327
-50,677
-50,017
-49,349
-48,679
-48,015
-47,361
-46,72
-46,095
-45,488
-44,901
-44,331
-43,77
-43,201
-42,612
-41,993
-41,343
-40,666
-39,965
-39,242
-38,499
-37,741
-36,979
-36,225
-35,487
-34,763
-34,058
-33,385
-32,773
-32,265
-31,899
-31,702
-31,689
-31,873
-32,262
-32,856
-33,646
-34,598
-35,67
-36,821
-38,028
-39,277
-40,546
-41,793
-42,957
-43,964
-44,743
-45,236
-45,383
-45,116
-44,378
-43,135
-41,383
-39,159
-36,519
-33,511
-30,169
-26,526
-22,628
-18,546
-14,364
-10,161
-6,01
-1,991
1,804
5,254
8,25
10,728
12,653
14,035
14,914
15,313
15,259
14,795
13,977
12,871
11,537
9,982
8,199
6,198
4,02
1,76
-0,511
-2,789
-5,081
-7,425
-9,875
-12,447
-15,249
-18,503
-22,283
-26,57
-31,193
-35,685
-39,627
-42,754
-44,569
-44,556
-42,73
-39,257
-34,762
-30,741
-28,346
-28,452
-32,566
-40,876
-51,47
-62,744
-72,059
-78,316
-84,56
-90,855
-93,936
-86,407
-56,598
1,168
85,315
188,237
297,92
405,934
505,887
590,279
652,106
681,349
668,837
612,774
515,22
385,659
241,534
100,611
-17,948
-100,509
-145,611
-158,677
-150,978
-133,46
-111,206
-88,049
-67,746
-54,015
-50,593
-56,793
-66,769
-74,81
-77,631
-75,462
-72,226
-70,414
-69,769
-69,183
-66,843
-62,106
-55,781
-48,678
-41,483
-34,76
-28,885
-24,099
-20,547
-18,176
-16,789
-16,234
-16,397
-17,14
-18,292
-19,657
-21,066
-22,386
-23,526
-24,414
-24,966
-25,123
-24,861
-24,181
-23,11
-21,69
-19,963
-17,973
-15,782
-13,453
-11,058
-8,696
-6,446
-4,379
-2,556
-0,995
0,289
1,297
2,054
2,603
3,001
3,31
3,585
3,867
4,196
4,61
5,148
5,861
6,793
7,979
9,448
11,204
13,243
15,551
18,095
20,826
23,683
26,607
29,551
32,481
35,371
38,197
40,936
43,559
46,042
48,36
50,484
52,399
54,089
55,551
56,793
57,837
58,713
59,448
60,06
60,56
60,952
61,24
61,426
61,509
61,488
61,365
61,15
60,848
60,469
60,013
59,477
58,853
58,126
57,287
56,328
55,244
54,033
52,697
51,238
49,662
47,976
46,187
44,296
42,308
40,223
38,045
35,78
33,435
31,015
28,53
25,986
23,391
20,752
18,075
15,365
12,627
9,864
7,08
4,279
1,465
-1,357
-4,183
-7,009
-9,831
-12,644
-15,446
-18,231
-20,999
-23,745
-26,467
-29,161
-31,826
-34,457
-37,053
-39,609
-42,123
-44,591
-47,009
-49,374
-51,682
-53,929
-56,112
-58,226
-60,269
-62,235
-64,123
-65,927
-67,645
-69,273
-70,807
-72,246
-73,585
-74,823
-75,957
-76,985
-77,905
-78,717
-79,42
-80,012
-80,494
-80,866
-81,128
-81,282
-81,328
-81,27
-81,109
-80,849
-80,493
-80,046
-79,512
-78,897
-78,206
-77,445
-76,622
-75,743
-74,815
-73,846
-72,844
-71,815
-70,77
-69,714
-68,656
-67,603
-66,564
-65,545
-64,553
-63,594
-62,676
-61,802
-60,98
-60,213
-59,506
-58,86
-58,279
-57,766
-57,32
-56,943
-56,635
-56,396
-56,225
-56,12
-56,081
-56,103
-56,184
-56,316
-56,496
-56,718
-56,976
-57,263
-57,573
-57,897
-58,23
-58,567
-58,9
-59,223
-59,526
-59,798
-60,033
-60,229
-60,383
-60,498
-60,576
-60,62
-60,638
-60,643
-60,647
-60,654
-60,667
-60,684
-60,708
-60,747
-60,814
-60,922
-61,075
-61,268
-61,494
-61,743
-61,999
-62,239
-62,427
-62,521
-62,493
-62,326
-62,021
-61,585
-61,015
-60,299
-59,415
-58,344
-57,083
-55,637
-54,016
-52,237
-50,329
-48,341
-46,342
-44,405
-42,587
-40,917
-39,403
-38,051
-36,875
-35,917
-35,252
-34,949
-35,069
-35,662
-36,741
-38,324
-40,436
-43,066
-46,196
-49,813
-53,864
-58,384
-63,498
-69,197
-75,367
-81,721
-87,657
-92,615
-96,212
-97,933
-97,296
-94,284
-89,12
-82,634
-76,483
-72,078
-70,467
-72,742
-79,439
-90,038
-103,514
-117,687
-128,786
-133,249
-127,862
-109,084
-75,476
-28,416
30,67
98,898
174,007
257,142
346,852
437,807
520,212
579,917
604,503
586,98
528,013
432,928
310,821
175,449
41,578
-73,161
-153,827
-195,423
-201,068
-182,795
-153,869
-123,426
-97,986
-78,666
-66,418
-61,441
-60,121
-60,348
-59,682
-57,124
-55,375
-55,673
-57,997
-61,369
-63,498
-63,461
-61,568
-58,388
-54,732
-51,09
-47,75
-45,125
-43,465
-42,804
-43,012
-43,851
-45,133
-46,734
-48,532
-50,391
-52,175
-53,778
-55,125
-56,162
-56,845
-57,134
-57,006
-56,454
-55,484
-54,117
-52,385
-50,325
-47,975
-45,374
-42,554
-39,547
-36,392
-33,133
-29,812
-26,473
-23,147
-19,856
-16,617
-13,443
-10,34
-7,311
-4,351
-1,452
1,389
4,176
6,91
9,59
12,22
14,804
17,347
19,852
22,321
24,757
27,16
29,531
31,869
34,173
36,442
38,672
40,862
43,013
45,123
47,194
49,225
51,216
53,165
55,074
56,94
58,763
60,54
62,272
63,955
65,589
67,172
68,702
70,175
71,589
72,941
74,226
75,439
76,577
77,635
78,607
79,49
80,279
80,972
81,565
82,056
82,441
82,717
82,884
82,937
82,873
82,689
82,382
81,95
81,392
80,708
79,899
78,967
77,913
76,742
75,456
74,058
72,546
70,92
69,179
67,328
65,374
63,328
61,206
59,023
56,794
54,538
52,271
50,001
47,733
45,461
43,181
40,891
38,595
36,308
34,041
31,802
29,594
27,413
25,245
23,075
20,882
18,633
16,306
13,89
11,39
8,837
6,271
3,731
1,247
-1,162
-3,486
-5,713
-7,83
-9,819
-11,652
-13,296
-14,707
-15,824
-16,597
-16,986
-16,977
-16,599
-15,904
-14,951
-13,799
-12,496
-11,074
-9,563
-7,99
-6,382
-4,769
-3,182
-1,668
-0,29
0,892
1,82
2,461
2,825
2,947
2,874
2,663
2,36
1,998
1,609
1,216
0,838
0,485
0,168
-0,095
-0,275
-0,34
-0,256
-0,012
0,384
0,913
1,544
2,243
2,981
3,739
4,496
5,243
5,982
6,718
7,463
8,218
8,986
9,771
10,584
11,454
12,408
13,462
14,633
15,931
17,367
18,944
20,656
22,476
24,372
26,311
28,264
30,211
32,125
33,965
35,67
37,162
38,383
39,294
39,865
40,073
39,891
39,302
38,317
36,971
35,303
33,348
31,125
28,644
25,931
23,037
20,033
17,017
14,057
11,209
8,527
6,056
3,856
1,973
0,423
-0,799
-1,689
-2,238
-2,415
-2,169
-1,483
-0,357
1,194
3,123
5,396
7,984
10,844
13,94
17,231
20,674
24,25
27,945
31,715
35,508
39,25
42,837
46,193
49,245
51,919
54,178
55,991
57,328
58,177
58,518
58,309
57,498
56,031
53,85
50,948
47,343
43,063
38,158
32,658
26,609
20,083
13,161
5,88
-1,808
-9,889
-18,234
-26,542
-34,311
-41,07
-46,502
-50,242
-51,815
-50,998
-47,883
-42,991
-37,481
-32,387
-28,445
-26,653
-27,943
-32,605
-39,492
-45,901
-48,581
-45,24
-36,84
-25,255
-9,974
11,543
46,205
101,108
177,762
273,266
379,057
483,672
575,813
645,303
683,517
682,162
638,22
552,664
431,923
292,187
151,066
27,447
-63,042
-116,111
-134,233
-127,848
-109,51
-88,077
-71,216
-61,018
-58,131
-62,392
-69,321
-76,193
-80,725
-82,037
-83,138
-85,637
-89,705
-94,42
-97,377
-97,51
-95,023
-90,472
-84,783
-78,562
-72,205
-66,267
-61,113
-56,887
-53,584
-51,061
-49,23
-48,065
-47,534
-47,57
-48,092
-49,035
-50,344
-51,977
-53,864
-55,914
-58,04
-60,176
-62,285
-64,35
-66,358
-68,297
-70,144
-71,871
-73,433
-74,783
-75,87
-76,663
-77,15
-77,335
-77,231
-76,857
-76,236
-75,384
-74,312
-73,028
-71,531
-69,825
-67,913
-65,815
-63,56
-61,187
-58,745
-56,269
-53,785
-51,309
-48,85
-46,413
-44
-41,608
-39,23
-36,867
-34,517
-32,183
-29,87
-27,576
-25,294
-23,014
-20,722
-18,408
-16,068
-13,7
-11,305
-8,889
-6,457
-4,02
-1,59
0,82
3,2
5,541
7,836
10,076
12,251
14,351
16,365
18,283
20,097
21,798
23,376
24,825
26,137
27,307
28,33
29,203
29,919
30,476
30,868
31,093
31,148
31,031
30,741
30,277
29,639
28,83
27,851
26,705
25,397
23,932
22,314
20,55
18,648
16,614
14,455
12,181
9,8
7,319
4,748
2,095
-0,63
-3,418
-6,26
-9,148
-12,071
-15,02
-17,987
-20,964
-23,94
-26,909
-29,863
-32,794
-35,694
-38,558
-41,378
-44,149
-46,867
-49,525
-52,121
-54,649
-57,108
-59,494
-61,807
-64,043
-66,203
-68,285
-70,29
-72,218
-74,069
-75,843
-77,541
-79,165
-80,715
-82,192
-83,598
-84,935
-86,204
-87,407
-88,545
-89,62
-90,633
-91,587
-92,481
-93,318
-94,097
-94,821
-95,49
-96,105
-96,666
-97,173
-97,628
-98,031
-98,382
-98,68
-98,927
-99,121
-99,263
-99,352
-99,387
-99,369
-99,298
-99,172
-98,994
-98,761
-98,476
-98,137
-97,746
-97,302
-96,806
-96,259
-95,661
-95,013
-94,318
-93,576
-92,79
-91,961
-91,093
-90,187
-89,246
-88,271
-87,266
-86,231
-85,169
-84,08
-82,967
-81,831
-80,674
-79,496
-78,299
-77,085
-75,855
-74,61
-73,351
-72,079
-70,793
-69,493
-68,176
-66,842
-65,491
-64,119
-62,725
-61,309
-59,867
-58,4
-56,906
-55,382
-53,824
-52,224
-50,577
-48,883
-47,14
-45,351
-43,52
-41,655
-39,767
-37,873
-35,989
-34,126
-32,292
-30,489
-28,723
-26,996
-25,316
-23,693
-22,135
-20,645
-19,223
-17,864
-16,557
-15,281
-14,002
-12,675
-11,257
-9,714
-8,023
-6,177
-4,174
-2,019
0,281
2,721
5,296
8,006
10,845
13,802
16,857
19,974
23,097
26,154
29,07
31,774
34,22
36,378
38,231
39,787
41,048
42,017
42,677
42,977
42,863
42,287
41,215
39,638
37,569
35,024
32,04
28,664
24,908
20,787
16,25
11,156
5,473
-0,759
-7,35
-13,85
-19,803
-24,817
-28,34
-29,856
-29,201
-26,313
-21,792
-17,049
-13,264
-11,738
-13,198
-16,721
-21,211
-25,703
-30,532
-38,524
-50,905
-65,142
-73,263
-62,002
-22,161
47,789
141,385
245,003
348,097
445,772
534,613
611,144
667,997
692,786
675,654
614,136
511,454
379,951
237,913
102,689
-7,374
-80,467
-116,544
-122,304
-111,74
-98,413
-87,53
-79,824
-72,142
-61,205
-48,533
-36,792
-28,284
-24,918
-26,134
-30,25
-35,889
-41,232
-44,722
-45,798
-44,326
-40,561
-35,167
-28,762
-21,843
-15,038
-8,953
-3,881
0,061
2,899
4,814
5,929
6,316
6,102
5,419
4,365
3,048
1,547
-0,076
-1,725
-3,317
-4,796
-6,104
-7,206
-8,074
-8,662
-8,942
-8,9
-8,513
-7,776
-6,698
-5,284
-3,565
-1,579
0,633
3,024
5,553
8,194
10,917
13,696
16,506
19,307
22,071
24,781
27,413
29,949
32,381
34,695
36,891
38,977
40,959
42,845
44,644
46,358
47,994
49,56
51,066
52,527
53,954
55,353
56,731
58,095
59,447
60,793
62,133
63,461
64,775
66,074
67,354
68,613
69,85
71,059
72,235
73,372
74,466
75,511
76,501
77,432
78,297
79,091
79,81
80,447
80,999
81,46
81,825
82,085
82,237
82,274
82,191
81,983
81,643
81,168
80,555
79,799
78,898
77,85
76,654
75,309
73,815
72,174
70,387
68,458
66,39
64,188
61,856
59,402
56,833
54,155
51,376
48,506
45,552
42,526
39,436
36,292
33,106
29,888
26,647
23,397
20,146
16,906
13,687
10,5
7,356
4,264
1,234
-1,724
-4,603
-7,393
-10,087
-12,678
-15,161
-17,529
-19,779
-21,906
-23,907
-25,781
-27,526
-29,141
-30,628
-31,987
-33,219
-34,327
-35,315
-36,184
-36,939
-37,584
-38,124
-38,563
-38,906
-39,16
-39,329
-39,421
-39,439
-39,391
-39,284
-39,122
-38,913
-38,662
-38,375
-38,059
-37,718
-37,359
-36,985
-36,603
-36,216
-35,828
-35,443
-35,062
-34,689
-34,326
-33,973
-33,633
-33,304
-32,988
-32,686
-32,396
-32,12
-31,857
-31,606
-31,368
-31,14
-30,923
-30,714
-30,514
-30,32
-30,132
-29,948
-29,767
-29,588
-29,409
-29,231
-29,05
-28,867
-28,679
-28,485
-28,285
-28,077
-27,859
-27,632
-27,394
-27,145
-26,886
-26,619
-26,343
-26,062
-25,777
-25,491
-25,204
-24,918
-24,635
-24,352
-24,072
-23,794
-23,52
-23,253
-22,993
-22,743
-22,506
-22,286
-22,085
-21,903
-21,739
-21,587
-21,446
-21,316
-21,202
-21,112
-21,054
-21,04
-21,081
-21,189
-21,374
-21,638
-21,98
-22,387
-22,851
-23,365
-23,929
-24,552
-25,236
-25,976
-26,757
-27,558
-28,345
-29,078
-29,711
-30,188
-30,457
-30,482
-30,246
-29,747
-28,996
-27,998
-26,741
-25,215
-23,414
-21,345
-19,048
-16,57
-13,968
-11,32
-8,7
-6,189
-3,879
-1,856
-0,195
1,061
1,895
2,318
2,298
1,719
0,483
-1,354
