Nom
Date de naissance
Date d’enregistrement,2022-02-27 15:53:36 +0100
Classification,Rythme sinusal
Symptômes,
Version du logiciel,1.52
Appareil,"Watch5,1"
Fréquence d’échantillonnage,511,242 hertz


Dérivation,Dérivation DI
Unité,µV

23,888
25,155
26,066
26,622
26,838
26,741
26,356
25,723
24,893
23,931
22,907
21,868
20,839
19,839
18,882
17,982
17,153
16,388
15,68
15,004
14,327
13,624
12,851
11,987
11,042
10
8,844
7,572
6,151
4,605
3,062
1,5
-0,215
-2,176
-4,544
-7,28
-10,041
-12,705
-15,391
-17,921
-19,969
-21,166
-20,913
-19,245
-16,971
-14,533
-12,062
-9,963
-8,653
-8,751
-11,289
-16,361
-23,036
-30,729
-39,086
-47,691
-56,356
-64,597
-71,465
-76,758
-81,053
-84,723
-88,061
-91,234
-94,08
-96,663
-99,377
-102,308
-105,25
-108,052
-110,512
-112,568
-114,404
-116,128
-117,791
-119,498
-121,318
-123,381
-125,938
-129,074
-132,697
-136,548
-140,046
-142,645
-144,042
-143,822
-141,543
-137,238
-131,215
-124,383
-118,503
-115,051
-115,005
-119,361
-128,581
-142,045
-158,518
-175,478
-188,948
-195,276
-191,138
-173,21
-139,199
-89,767
-27,804
43,001
116,798
191,824
270,087
347,303
418,442
473,932
495,88
477,55
417,297
315,859
189,733
53,863
-75,455
-174,44
-234,585
-256,907
-249,082
-230,825
-212,793
-194,93
-177,809
-159,492
-142,916
-138,276
-147,61
-165,835
-186,81
-200,965
-205,145
-203,3
-197,529
-190,374
-183,058
-173,954
-163,102
-151,623
-140,597
-131,943
-127,173
-126,579
-129,706
-135,517
-143,083
-151,77
-160,985
-169,964
-177,705
-183,572
-187,641
-190,498
-192,631
-194,286
-195,56
-196,559
-197,641
-199,089
-200,863
-202,684
-204,285
-205,577
-206,62
-207,558
-208,459
-209,366
-210,382
-211,651
-213,314
-215,438
-218,002
-220,926
-224,108
-227,48
-230,998
-234,62
-238,307
-242,007
-245,67
-249,251
-252,705
-255,974
-258,985
-261,673
-263,984
-265,896
-267,412
-268,554
-269,361
-269,865
-270,089
-270,05
-269,758
-269,222
-268,446
-267,433
-266,184
-264,712
-263,04
-261,191
-259,188
-257,043
-254,761
-252,344
-249,787
-247,087
-244,246
-241,269
-238,169
-234,961
-231,666
-228,308
-224,912
-221,502
-218,098
-214,719
-211,381
-208,103
-204,904
-201,804
-198,822
-195,979
-193,292
-190,779
-188,455
-186,334
-184,425
-182,737
-181,276
-180,047
-179,052
-178,293
-177,773
-177,492
-177,446
-177,634
-178,051
-178,691
-179,548
-180,612
-181,874
-183,323
-184,947
-186,737
-188,68
-190,764
-192,977
-195,308
-197,743
-200,272
-202,882
-205,563
-208,302
-211,089
-213,916
-216,775
-219,658
-222,557
-225,467
-228,383
-231,302
-234,221
-237,138
-240,049
-242,953
-245,852
-248,747
-251,647
-254,553
-257,464
-260,376
-263,287
-266,19
-269,077
-271,937
-274,75
-277,498
-280,167
-282,748
-285,238
-287,628
-289,903
-292,045
-294,035
-295,867
-297,545
-299,078
-300,478
-301,763
-302,962
-304,116
-305,283
-306,508
-307,821
-309,238
-310,763
-312,408
-314,193
-316,138
-318,248
-320,503
-322,866
-325,286
-327,707
-330,053
-332,226
-334,094
-335,51
-336,349
-336,505
-335,898
-334,449
-332,072
-328,679
-324,185
-318,544
-311,745
-303,798
-294,732
-284,597
-273,469
-261,474
-248,782
-235,575
-222,024
-208,286
-194,504
-180,84
-167,472
-154,57
-142,296
-130,776
-120,097
-110,335
-101,546
-93,759
-86,973
-81,141
-76,171
-71,968
-68,447
-65,51
-63,064
-60,988
-59,138
-57,391
-55,637
-53,789
-51,786
-49,575
-47,111
-44,384
-41,4
-38,189
-34,799
-31,272
-27,638
-23,94
-20,222
-16,543
-12,97
-9,541
-6,276
-3,18
-0,247
2,537
5,199
7,791
10,372
12,997
15,71
18,543
21,517
24,649
27,951
31,435
35,094
38,9
42,812
46,774
50,73
54,623
58,377
61,902
65,117
67,957
70,38
72,364
73,887
74,948
75,555
75,725
75,502
74,937
74,077
72,979
71,685
70,227
68,659
67,048
65,456
63,929
62,478
61,102
59,798
58,549
57,357
56,176
54,883
53,466
52,012
50,718
50,006
50,284
51,81
54,977
60,194
67,462
76,619
87,01
97,258
106,199
112,862
116,092
115,217
110,527
102,654
93,318
85,756
82,965
88,031
104,746
134,636
176,181
227,925
287,027
351,569
425,069
507,979
594,293
674,309
730,516
745,578
714,285
637,64
523,434
390,111
253,301
130,084
40,829
-8,308
-18,902
-1,029
24,761
47,081
62,134
71,065
81,3
94,69
108,819
121,283
128,564
130,085
127,796
123,209
118,117
114,106
111,667
110,991
112,014
114,209
117,033
120,065
122,8
124,722
125,605
125,403
124,194
122,224
119,701
116,78
113,651
110,512
107,511
104,779
102,416
100,46
98,948
97,911
97,352
97,259
97,607
98,357
99,468
100,913
102,659
104,672
106,922
109,372
111,991
114,751
117,615
120,552
123,543
126,59
129,716
132,967
136,389
140,013
143,861
147,945
152,267
156,825
161,595
166,539
171,595
176,705
181,826
186,928
191,968
196,879
201,568
205,918
209,828
213,222
216,033
218,191
219,637
220,336
220,283
219,513
218,096
216,088
213,54
210,493
207,01
203,187
199,15
195,042
190,987
187,085
183,446
180,196
177,456
175,324
173,864
173,094
173,011
173,621
174,925
176,907
179,525
182,702
186,331
190,292
194,485
198,82
203,191
207,472
211,526
215,218
218,439
221,105
223,137
224,444
224,948
224,601
223,385
221,312
218,423
214,767
210,379
205,291
199,543
193,183
186,294
178,976
171,318
163,413
155,362
147,282
139,297
131,5
123,956
116,708
109,774
103,169
96,921
91,06
85,616
80,626
76,092
71,992
68,309
65,005
62,029
59,311
56,761
54,3
51,883
49,474
47,06
44,626
42,146
39,594
36,946
34,16
31,22
28,118
24,843
21,405
17,825
14,137
10,396
6,654
2,939
-0,728
-4,337
-7,882
-11,349
-14,727
-18,009
-21,181
-24,232
-27,152
-29,93
-32,564
-35,058
-37,423
-39,68
-41,848
-43,938
-45,956
-47,904
-49,783
-51,592
-53,33
-54,993
-56,578
-58,084
-59,513
-60,868
-62,15
-63,359
-64,491
-65,546
-66,519
-67,412
-68,226
-68,964
-69,63
-70,232
-70,776
-71,271
-71,725
-72,145
-72,538
-72,907
-73,257
-73,592
-73,918
-74,24
-74,563
-74,895
-75,243
-75,615
-76,017
-76,457
-76,936
-77,461
-78,032
-78,649
-79,316
-80,033
-80,807
-81,646
-82,556
-83,536
-84,588
-85,706
-86,88
-88,096
-89,331
-90,56
-91,763
-92,927
-94,044
-95,119
-96,156
-97,157
-98,128
-99,06
-99,951
-100,805
-101,625
-102,418
-103,203
-104,011
-104,891
-105,913
-107,121
-108,544
-110,196
-112,057
-114,107
-116,319
-118,648
-121,061
-123,515
-125,954
-128,336
-130,614
-132,722
-134,578
-136,061
-137,028
-137,37
-137,008
-135,882
-133,969
-131,246
-127,702
-123,368
-118,283
-112,499
-106,086
-99,1
-91,597
-83,663
-75,414
-67,005
-58,621
-50,405
-42,48
-34,981
-28,032
-21,777
-16,342
-11,783
-8,14
-5,463
-3,79
-3,175
-3,681
-5,279
-7,967
-11,79
-16,642
-22,344
-28,58
-34,743
-40,228
-44,579
-47,177
-47,382
-45,055
-40,351
-34
-27,561
-22,34
-19,262
-19,484
-23,846
-32,104
-43,241
-54,902
-63,286
-64,891
-56,594
-34,871
3,423
58,431
127,538
206,931
290,437
376,386
468,546
564,643
659,662
741,947
788,808
787,614
734,384
631,635
498,222
352,212
210,123
92,392
9,804
-34,179
-42,866
-31,582
-16,031
-4,607
-0,407
0,725
4,688
11,646
19,615
26,004
27,94
25,703
21,177
15,74
11,176
8,985
9,583
13,086
19,278
27,425
36,813
46,856
56,858
66,145
74,337
81,208
86,653
90,732
93,5
95,007
95,368
94,724
93,184
90,849
87,829
84,241
80,232
75,966
71,565
67,126
62,749
58,539
54,619
51,096
48,04
45,484
43,454
41,979
41,072
40,729
40,903
41,515
42,49
43,778
45,341
47,151
49,171
51,349
53,639
56,031
58,517
61,087
63,712
66,324
68,872
71,335
73,714
76,026
78,266
80,396
82,375
84,176
85,773
87,145
88,239
88,949
89,2
88,948
88,182
86,95
85,282
83,184
80,67
77,766
74,528
71,055
67,439
63,744
60,037
56,4
52,95
49,862
47,27
45,264
43,906
43,212
43,216
43,96
45,45
47,652
50,498
53,882
57,695
61,863
66,3
70,903
75,543
80,051
84,288
88,147
91,536
94,371
96,547
97,964
98,558
98,315
97,257
95,43
92,895
89,692
85,877
81,517
76,685
71,472
65,96
60,217
54,312
48,337
42,406
36,633
31,126
25,946
21,132
16,709
12,685
9,067
5,859
3,057
0,66
-1,328
-2,909
-4,085
-4,863
-5,282
-5,397
-5,276
-5,003
-4,64
-4,228
-3,809
-3,405
-3,034
-2,718
-2,472
-2,318
-2,288
-2,407
-2,696
-3,177
-3,849
-4,703
-5,713
-6,838
-8,04
-9,297
-10,59
-11,909
-13,25
-14,602
-15,961
-17,323
-18,676
-20,009
-21,314
-22,578
-23,797
-24,976
-26,122
-27,255
-28,39
-29,537
-30,702
-31,885
-33,086
-34,301
-35,526
-36,752
-37,974
-39,192
-40,404
-41,613
-42,821
-44,027
-45,232
-46,432
-47,627
-48,813
-49,987
-51,148
-52,298
-53,441
-54,587
-55,743
-56,913
-58,098
-59,302
-60,521
-61,751
-62,979
-64,183
-65,349
-66,47
-67,546
-68,586
-69,598
-70,588
-71,563
-72,532
-73,504
-74,496
-75,516
-76,561
-77,645
-78,781
-80,003
-81,367
-82,913
-84,656
-86,609
-88,765
-91,116
-93,66
-96,371
-99,202
-102,112
-105,052
-107,991
-110,917
-113,798
-116,592
-119,233
-121,628
-123,702
-125,409
-126,697
-127,522
-127,848
-127,631
-126,874
-125,624
-123,926
-121,832
-119,379
-116,585
-113,492
-110,166
-106,686
-103,145
-99,627
-96,188
-92,909
-89,881
-87,185
-84,911
-83,097
-81,725
-80,776
-80,218
-80,026
-80,186
-80,663
-81,399
-82,347
-83,48
-84,786
-86,282
-87,952
-89,737
-91,601
-93,528
-95,543
-97,717
-100,139
-102,866
-105,997
-109,707
-114,053
-118,992
-124,347
-129,687
-134,595
-138,8
-141,9
-143,414
-143,268
-141,658
-139,209
-137,216
-136,653
-138,04
-142,164
-149,647
-160,21
-172,937
-185,78
-195,461
-199,328
-195,128
-179,943
-151,221
-107,651
-50,265
16,898
88,939
162,557
237,89
315,776
392,861
460,726
505,875
516,46
487,527
422,791
333,801
230,426
124,466
27,232
-55,479
-113,459
-144,638
-157,121
-156,238
-151,261
-147,302
-140,269
-129,619
-116,513
-102,509
-92,144
-87,633
-88,214
-92,668
-99,41
-106,71
-113,01
-117,389
-119,286
-118,552
-115,757
-111,536
-106,386
-101,009
-96,108
-92,045
-89,037
-87,122
-86,096
-85,824
-86,215
-87,102
-88,331
-89,787
-91,355
-92,953
-94,521
-95,957
-97,138
-97,974
-98,404
-98,405
-97,991
-97,18
-95,99
-94,446
-92,576
-90,411
-87,989
-85,351
-82,538
-79,609
-76,628
-73,667
-70,813
-68,129
-65,646
-63,368
-61,265
-59,29
-57,411
-55,596
-53,822
-52,07
-50,313
-48,523
-46,68
-44,749
-42,692
-40,464
-37,994
-35,232
-32,159
-28,777
-25,126
-21,264
-17,23
-13,056
-8,774
-4,403
0,032
4,506
9,01
13,527
18,033
22,495
26,859
31,078
35,133
39,02
42,757
46,377
49,901
53,342
56,717
60,034
63,297
66,509
69,661
72,738
75,739
78,663
81,523
84,328
87,074
89,749
92,334
94,801
97,127
99,294
101,282
103,079
104,673
106,056
107,223
108,176
108,916
109,445
109,761
109,866
109,764
109,468
109
108,382
107,638
106,786
105,838
104,803
103,689
102,507
101,266
99,962
98,581
97,107
95,528
93,836
92,02
90,055
87,897
85,506
82,851
79,91
76,681
73,158
69,339
65,226
60,84
56,227
51,461
46,623
41,772
36,972
32,292
27,827
23,703
20,028
16,89
14,363
12,5
11,367
11,029
11,519
12,832
14,926
17,723
21,137
25,108
29,556
34,378
39,439
44,565
49,612
54,463
59,007
63,138
66,728
69,654
71,835
73,236
73,849
73,691
72,778
71,101
68,7
65,652
62,06
58,062
53,768
49,265
44,646
40,02
35,507
31,22
27,241
23,61
20,377
17,592
15,314
13,616
12,513
11,981
11,98
12,451
13,342
14,62
16,232
18,104
20,176
22,392
24,709
27,099
29,5
31,831
33,994
35,895
37,479
38,721
39,603
40,116
40,255
40,01
39,391
38,416
37,08
35,372
33,289
30,833
28,041
24,981
21,733
18,368
14,942
11,499
8,076
4,711
1,432
-1,737
-4,779
-7,679
-10,395
-12,886
-15,118
-17,071
-18,751
-20,185
-21,409
-22,457
-23,358
-24,146
-24,849
-25,493
-26,096
-26,669
-27,219
-27,754
-28,294
-28,855
-29,458
-30,103
-30,776
-31,454
-32,099
-32,672
-33,137
-33,451
-33,567
-33,453
-33,082
-32,437
-31,512
-30,309
-28,831
-27,093
-25,104
-22,885
-20,475
-17,922
-15,291
-12,656
-10,082
-7,639
-5,403
-3,433
-1,78
-0,494
0,398
0,88
0,939
0,582
-0,196
-1,402
-3,037
-5,095
-7,552
-10,371
-13,511
-16,918
-20,537
-24,349
-28,331
-32,47
-36,77
-41,188
-45,743
-50,533
-55,507
-60,496
-65,181
-68,989
-71,439
-72,259
-71,045
-67,421
-61,466
-53,436
-44,206
-35,445
-28,49
-24,377
-24,196
-28,352
-36,283
-47,11
-58,667
-67,246
-69,492
-61,998
-41,021
-5,444
42,878
102,05
168,476
239,642
318,37
404,138
490,616
567,691
617,568
623,9
582,479
496,114
374,288
234,558
91,603
-40,485
-144,855
-213,254
-243,989
-239,572
-209,267
-162,284
-105,832
-48,901
-2,107
26,258
32,682
20,28
-0,888
-20,682
-34,027
-40,889
-45,259
-50,874
-58,442
-66,157
-71,032
-71,738
-68,775
-63,598
-58,262
-53,692
-49,957
-47,265
-45,719
-45,377
-46,302
-48,18
-50,431
-52,744
-54,984
-57,055
-58,952
-60,603
-61,894
-62,806
-63,385
-63,665
-63,668
-63,39
-62,801
-61,903
-60,72
-59,282
-57,626
-55,779
-53,769
-51,629
-49,396
-47,112
-44,81
-42,515
-40,246
-38,013
-35,821
-33,672
-31,567
-29,499
-27,463
-25,45
-23,451
-21,461
-19,474
-17,481
-15,478
-13,456
-11,409
-9,332
-7,221
-5,073
-2,886
-0,659
1,608
3,914
6,257
8,638
11,054
13,506
15,992
18,51
21,058
23,635
26,236
28,859
31,498
34,148
36,804
39,46
42,108
44,742
47,354
49,938
52,485
54,986
57,435
59,821
62,136
64,373
66,521
68,573
70,52
72,355
74,07
75,657
77,109
78,421
79,585
80,596
81,448
82,137
82,659
83,008
83,183
83,18
82,996
82,632
82,086
81,357
80,447
79,356
78,085
76,637
75,014
73,219
71,256
69,129
66,843
64,402
61,814
59,083
56,217
53,223
50,108
46,879
43,545
40,115
36,596
32,999
29,331
25,604
21,826
18,009
14,161
10,294
6,417
2,541
-1,323
-5,165
-8,975
-12,742
-16,457
-20,109
-23,688
-27,184
-30,59
-33,894
-37,09
-40,17
-43,126
-45,952
-48,643
-51,193
-53,597
-55,853
-57,957
-59,908
-61,704
-63,344
-64,83
-66,162
-67,343
-68,375
-69,263
-70,011
-70,625
-71,111
-71,475
-71,726
-71,871
-71,919
-71,88
-71,763
-71,58
-71,34
-71,055
-70,735
-70,393
-70,04
-69,685
-69,34
-69,015
-68,72
-68,464
-68,254
-68,099
-68,006
-67,982
-68,031
-68,159
-68,369
-68,666
-69,05
-69,522
-70,085
-70,735
-71,472
-72,292
-73,192
-74,167
-75,212
-76,321
-77,485
-78,699
-79,951
-81,234
-82,537
-83,85
-85,162
-86,461
-87,736
-88,977
-90,174
-91,315
-92,391
-93,393
-94,312
-95,142
-95,875
-96,505
-97,027
-97,435
-97,727
-97,899
-97,951
-97,881
-97,689
-97,378
-96,951
-96,414
-95,773
-95,035
-94,208
-93,303
-92,329
-91,296
-90,215
-89,094
-87,944
-86,776
-85,603
-84,439
-83,296
-82,186
-81,121
-80,113
-79,173
-78,309
-77,525
-76,824
-76,211
-75,694
-75,289
-75,008
-74,861
-74,855
-74,998
-75,287
-75,72
-76,286
-76,959
-77,715
-78,53
-79,382
-80,258
-81,139
-81,999
-82,808
-83,522
-84,105
-84,529
-84,763
-84,783
-84,594
-84,215
-83,682
-83,062
-82,395
-81,725
-81,125
-80,646
-80,361
-80,361
-80,689
-81,445
-82,789
-84,758
-87,309
-90,287
-93,297
-95,955
-98,005
-99,001
-98,479
-96,372
-92,801
-88,36
-84,265
-81,494
-80,77
-83,014
-88,802
-97,843
-109,277
-121,177
-130,605
-134,841
-131,023
-116,032
-87,283
-45,191
6,949
65,627
126,313
189,794
261,691
339,906
418,842
485,583
516,744
501,669
438,443
331,367
203,398
74,189
-39,936
-120,205
-163,199
-171,118
-150,213
-114,809
-76,819
-46,353
-29,529
-28,219
-39,398
-55,168
-70,108
-79,515
-82,6
-84,149
-86,461
-90,492
-96,089
-100,524
-102,639
-102,856
-101,629
-99,863
-98,241
-96,984
-96,249
-96,169
-96,73
-97,777
-99,21
-100,969
-102,951
-105,085
-107,302
-109,484
-111,559
-113,485
-115,177
-116,564
-117,595
-118,217
-118,422
-118,221
-117,628
-116,665
-115,358
-113,731
-111,815
-109,637
-107,216
-104,575
-101,731
-98,713
-95,565
-92,325
-89,03
-85,713
-82,394
-79,093
-75,829
-72,613
-69,455
-66,357
-63,321
-60,366
-57,522
-54,834
-52,363
-50,154
-48,228
-46,61
-45,303
-44,301
-43,596
-43,146
-42,894
-42,794
-42,803
-42,887
-43,02
-43,142
-43,175
-43,033
-42,603
-41,798
-40,551
-38,783
-36,438
-33,493
-29,939
-25,823
-21,231
-16,232
-10,89
-5,272
0,564
6,517
12,463
18,291
23,88
29,123
33,924
38,166
41,747
44,606
46,706
48,063
48,732
48,753
48,165
47,025
45,393
43,361
41,041
38,517
35,864
33,159
30,47
27,89
25,505
23,366
21,504
19,927
18,62
17,578
16,794
16,239
15,876
15,656
15,514
15,416
15,337
15,251
15,137
14,96
14,692
14,319
13,84
13,256
12,572
11,787
10,904
9,937
8,908
7,84
6,76
5,685
4,623
3,584
2,577
1,609
0,688
-0,185
-1,012
-1,793
-2,523
-3,198
-3,813
-4,366
-4,86
-5,293
-5,668
-5,984
-6,238
-6,432
-6,562
-6,626
-6,621
-6,542
-6,382
-6,14
-5,81
-5,391
-4,881
-4,277
-3,578
-2,783
-1,893
-0,907
0,175
1,354
2,628
3,996
5,457
7,006
8,64
10,356
12,146
14,004
15,924
17,899
19,922
21,986
24,084
26,21
28,356
30,518
32,687
34,859
37,025
39,18
41,316
43,426
45,504
47,545
49,539
51,481
53,366
55,19
56,948
58,638
60,255
61,797
63,263
64,651
65,961
67,191
68,338
69,404
70,392
71,306
72,151
72,932
73,655
74,326
74,954
75,545
76,103
76,628
77,117
77,572
78,004
78,423
78,848
79,292
79,77
80,299
80,9
81,589
82,372
83,246
84,196
85,219
86,324
87,518
88,818
90,226
91,729
93,306
94,933
96,573
98,189
99,728
101,126
102,347
103,381
104,237
104,952
105,545
106,016
106,376
106,631
106,804
106,937
107,078
107,281
107,626
108,207
109,123
110,489
112,368
114,781
117,722
121,146
125,021
129,325
134,013
139,03
144,314
149,783
155,345
160,904
166,318
171,432
176,1
180,167
183,531
186,136
187,937
188,921
189,086
188,416
186,927
184,641
181,565
177,728
173,172
167,96
162,221
156,084
149,657
143,055
136,337
129,544
122,752
115,973
109,189
102,495
96,016
90,02
85,001
81,399
79,62
80,147
83,204
88,677
96,289
105,188
114,125
122,019
127,564
129,489
127,484
122,044
114,219
106,223
100,849
100,802
109,656
131,19
166,065
212,261
267,677
328,439
394,362
469,607
550,95
630,972
697,146
730,002
720,432
668,714
579,876
467,971
346,012
226,011
123,706
50,403
11,226
3,033
13,048
29,295
44,43
56,985
71,125
87,899
105,569
121,769
132,329
135,603
132,541
123,864
111,713
99,191
87,754
78,139
70,928
65,774
62,506
61,502
62,203
63,314
64,115
64,135
63,156
61,503
59,234
56,084
52,181
47,925
43,625
39,606
36,065
32,977
30,389
28,422
27,101
26,405
26,283
26,637
27,387
28,495
29,916
31,605
33,522
35,602
37,762
39,906
41,914
43,686
45,156
46,277
47,025
47,396
47,406
47,103
46,564
45,86
45,041
44,142
43,182
42,194
41,228
40,338
39,592
39,04
38,714
38,642
38,843
39,32
40,059
41,023
42,15
43,391
44,716
46,103
47,542
49,022
50,52
52,019
53,503
54,956
56,367
57,72
59,001
60,205
61,332
62,395
63,416
64,41
65,382
66,333
67,262
68,162
69,031
69,86
70,637
71,353
71,999
72,57
73,063
73,471
73,788
74,003
74,108
74,094
73,955
73,686
73,283
72,743
72,065
71,25
70,301
69,221
68,013
66,679
65,222
63,646
61,955
60,153
58,243
56,231
54,122
51,921
49,634
47,268
44,829
42,324
39,759
37,141
34,476
31,772
29,035
26,271
23,485
20,685
17,877
15,067
12,262
9,466
6,686
3,928
1,197
-1,502
-4,164
-6,787
-9,366
-11,899
-14,38
-16,809
-19,182
-21,496
-23,749
-25,937
-28,059
-30,111
-32,092
-33,999
-35,83
-37,583
-39,256
-40,845
-42,35
-43,768
-45,097
-46,334
-47,479
-48,53
-49,486
-50,347
-51,112
-51,782
-52,358
-52,84
-53,23
-53,53
-53,741
-53,865
-53,904
-53,86
-53,735
-53,532
-53,255
-52,905
-52,488
-52,005
-51,462
-50,863
-50,213
-49,515
-48,776
-48
-47,194
-46,363
-45,513
-44,651
-43,783
-42,915
-42,053
-41,204
-40,373
-39,564
-38,784
-38,036
-37,325
-36,654
-36,026
-35,442
-34,906
-34,42
-33,983
-33,597
-33,262
-32,979
-32,745
-32,56
-32,423
-32,331
-32,282
-32,273
-32,299
-32,359
-32,447
-32,56
-32,692
-32,84
-32,997
-33,16
-33,323
-33,482
-33,629
-33,762
-33,876
-33,965
-34,026
-34,054
-34,049
-34,007
-33,93
-33,817
-33,669
-33,489
-33,28
-33,045
-32,787
-32,51
-32,215
-31,906
-31,587
-31,262
-30,939
-30,623
-30,32
-30,035
-29,774
-29,541
-29,342
-29,178
-29,048
-28,954
-28,904
-28,91
-28,987
-29,148
-29,403
-29,761
-30,226
-30,8
-31,482
-32,256
-33,108
-34,018
-34,97
-35,953
-36,956
-37,959
-38,933
-39,832
-40,613
-41,238
-41,679
-41,914
-41,943
-41,773
-41,439
-40,995
-40,49
-39,99
-39,574
-39,322
-39,327
-39,686
-40,497
-41,904
-44,107
-47,227
-51,244
-55,983
-61,092
-66,217
-71,086
-75,355
-78,52
-80,233
-80,582
-80,138
-79,932
-81,029
-84,027
-89,36
-97,729
-109,521
-124,126
-139,884
-154,201
-164,137
-167,22
-161,226
-143,351
-110,71
-63,128
-3,558
64,585
137,043
212,496
294,673
382,766
470,262
547,368
597,158
604,997
567,681
486,242
368,366
231,849
91,793
-34,687
-127,67
-181,677
-198,974
-189,481
-172,644
-158,875
-151,096
-148,041
-143,148
-135,125
-126,641
-120,161
-118,767
-122,716
-129,957
-138,817
-147,389
-153,996
-158,055
-159,342
-157,959
-154,549
-149,794
-144,289
-138,746
-133,831
-129,872
-127,002
-125,186
-124,203
-123,889
-124,127
-124,763
-125,678
-126,788
-128,034
-129,382
-130,79
-132,186
-133,481
-134,593
-135,465
-136,092
-136,495
-136,719
-136,835
-136,902
-136,977
-137,101
-137,286
-137,529
-137,806
-138,102
-138,418
-138,766
-139,165
-139,634
-140,183
-140,803
-141,474
-142,159
-142,801
-143,35
-143,764
-144,014
-144,095
-144,02
-143,818
-143,517
-143,136
-142,689
-142,178
-141,605
-140,969
-140,269
-139,502
-138,678
-137,812
-136,923
-136,026
-135,129
-134,234
-133,332
-132,408
-131,45
-130,444
-129,384
-128,268
-127,096
-125,875
-124,612
-123,321
-122,012
-120,692
-119,37
-118,051
-116,743
-115,456
-114,201
-112,991
-111,837
-110,751
-109,746
-108,832
-108,017
-107,308
-106,711
-106,23
-105,866
-105,624
-105,505
-105,512
-105,647
-105,911
-106,305
-106,828
-107,481
-108,263
-109,169
-110,199
-111,348
-112,613
-113,987
-115,467
-117,046
-118,718
-120,475
-122,311
-124,219
-126,189
-128,214
-130,285
-132,394
-134,532
-136,691
-138,863
-141,039
-143,211
-145,373
-147,518
-149,639
-151,73
-153,787
-155,804
-157,777
-159,702
-161,575
-163,394
-165,157
-166,86
-168,503
-170,084
-171,603
-173,058
-174,451
-175,781
-177,048
-178,254
-179,4
-180,487
-181,518
-182,496
-183,423
-184,304
-185,14
-185,936
-186,695
-187,42
-188,115
-188,782
-189,425
-190,046
-190,648
-191,233
-191,803
-192,361
-192,907
-193,443
-193,969
-194,484
-194,99
-195,484
-195,966
-196,434
-196,888
-197,324
-197,742
-198,141
-198,517
-198,869
-199,195
-199,493
-199,758
-199,987
-200,176
-200,319
-200,411
-200,448
-200,424
-200,335
-200,178
-199,951
-199,651
-199,279
-198,833
-198,312
-197,714
-197,036
-196,276
-195,433
-194,503
-193,483
-192,376
-191,182
-189,912
-188,573
-187,164
-185,685
-184,131
-182,491
-180,758
-178,925
-176,982
-174,921
-172,743
-170,455
-168,077
-165,632
-163,135
-160,593
-158
-155,348
-152,65
-149,922
-147,187
-144,479
-141,83
-139,278
-136,882
-134,695
-132,745
-131,039
-129,552
-128,242
-127,09
-126,087
-125,236
-124,542
-123,982
-123,519
-123,118
-122,728
-122,293
-121,735
-120,936
-119,782
-118,208
-116,181
-113,715
-110,845
-107,574
-103,895
-99,805
-95,303
-90,427
-85,224
-79,733
-74,013
-68,138
-62,218
-56,42
-50,9
-45,764
-41,084
-36,896
-33,246
-30,222
-27,911
-26,374
-25,641
-25,716
-26,627
-28,413
-31,103
-34,711
-39,163
-44,385
-50,394
-57,123
-64,419
-71,999
-79,299
-85,732
-90,901
-94,324
-95,514
-94,431
-91,293
-86,861
-82,68
-80,101
-80,119
-83,761
-91,582
-103,147
-117,337
-131,759
-142,683
-146,686
-140,694
-121,736
-87,893
-38,762
24,68
99,434
180,644
262,893
340,18
406,145
455,026
483,832
492,411
481,229
451,011
399,34
322,224
222,379
110,403
4,576
-75,101
-118,97
-130,75
-124,633
-115,818
-112,082
-113,093
-112,81
-107,431
-97,991
-87,439
-79,548
-75,855
-75,404
-76,924
-79,212
-81,106
-81,675
-80,434
-77,217
-72,3
-66,304
-59,742
-52,984
-46,492
-40,742
-36,011
-32,442
-29,993
-28,463
-27,701
-27,583
-27,961
-28,677
-29,575
-30,505
-31,342
-31,984
-32,351
-32,38
-32,026
-31,265
-30,088
-28,5
-26,524
-24,198
-21,556
-18,636
-15,478
-12,118
-8,605
-4,995
-1,345
2,291
5,871
9,371
12,769
16,054
19,222
22,273
25,218
28,07
30,841
33,539
36,17
38,739
41,257
43,737
46,189
48,626
51,058
53,493
55,938
58,401
60,885
63,394
65,927
68,485
71,069
73,681
76,323
78,998
81,709
84,456
87,242
90,067
92,931
95,833
98,769
101,738
104,735
107,757
110,799
113,857
116,925
119,997
123,067
126,126
129,166
132,179
135,155
138,082
140,953
143,757
146,485
149,128
151,679
154,13
156,474
158,707
160,821
162,812
164,675
166,404
167,996
169,447
170,754
171,915
172,929
173,797
174,518
175,093
175,523
175,811
175,958
175,967
175,839
175,577
175,184
174,665
174,028
173,28
172,428
171,482
170,451
169,344
168,172
166,943
165,661
164,33
162,95
161,528
160,075
158,605
157,125
155,646
154,178
152,733
151,33
149,976
148,669
147,408
146,184
144,998
143,862
142,785
141,782
140,859
140,005
139,213
138,483
137,806
137,163
136,531
135,863
135,135
134,357
133,544
132,719
131,9
131,085
130,274
129,481
128,718
128,009
127,373
126,81
126,332
125,981
125,808
125,889
126,283
126,986
127,981
129,246
130,754
132,485
134,41
136,468
138,604
140,778
142,958
145,135
147,289
149,353
151,253
152,895
154,188
155,101
155,608
155,673
155,285
154,444
153,17
151,52
149,543
147,243
144,62
141,665
138,375
134,796
130,969
126,945
122,79
118,558
114,318
110,167
106,175
102,382
98,823
95,507
92,465
89,779
87,518
85,741
84,504
83,835
83,781
84,386
85,657
87,577
90,092
93,118
96,59
100,46
104,662
109,121
113,731
118,343
122,839
127,119
131,073
134,597
137,568
139,871
141,435
142,215
142,192
141,362
139,708
137,225
133,951
129,945
125,3
120,143
114,575
108,699
102,642
96,532
90,504
84,676
79,129
73,944
69,209
65,021
61,482
58,677
56,653
55,451
55,095
55,576
56,889
58,998
61,826
65,305
69,366
73,949
79,014
84,5
90,304
96,302
102,351
108,295
113,986
119,248
123,903
127,813
130,852
132,908
133,915
133,79
132,439
129,825
125,851
120,386
113,473
105,265
96,077
86,501
77,108
68,369
60,934
55,418
51,963
50,47
50,261
49,944
48,372
44,618
37,63
26,893
12,933
-3,21
-19,386
-32,018
-37,8
-33,451
-15,146
18,391
65,348
124,047
191,162
265,695
351,414
446,431
543,91
630,71
686,244
698,329
663,794
587,24
483,644
365,818
246,491
141,257
59,457
7,507
-15,452
-21,645
-21,68
-21,865
-24,035
-22,911
-15,515
-4,096
8,083
16,706
19,469
17,199
11,421
3,689
-4,413
-11,293
-15,955
-17,951
-17,217
-14,3
-9,845
-4,332
1,576
7,13
11,907
15,699
18,472
20,443
21,785
22,588
23,006
23,191
23,246
23,272
23,324
23,426
23,635
24,024
24,649
25,561
26,776
28,264
29,982
31,867
33,824
35,77
37,628
39,311
40,754
41,907
42,721
43,158
43,189
42,775
41,887
40,522
38,692
36,437
33,818
30,907
27,8
24,596
21,392
18,297
15,399
12,764
10,446
8,494
6,947
5,859
5,286
5,254
5,777
6,853
8,459
10,573
13,149
16,125
19,425
22,959
26,651
30,447
34,306
38,19
42,061
45,868
49,552
53,08
56,425
59,565
62,486
65,171
67,617
69,838
71,869
73,751
75,516
77,181
78,752
80,237
81,643
82,983
84,267
85,495
86,663
87,766
88,801
89,767
90,661
91,469
92,175
92,758
93,2
93,49
93,614
93,556
93,3
92,834
92,14
91,216
90,063
88,684
87,099
85,327
83,389
81,298
79,06
76,679
74,166
71,537
68,815
66,036
63,229
60,429
57,689
55,057
52,567
50,241
48,063
45,992
44,001
42,069
40,183
38,34
36,517
34,673
32,776
30,783
28,658
26,361
23,81
20,919
17,617
13,857
9,647
5,033
0,047
-5,29
-10,938
-16,858
-22,979
-29,197
-35,434
-41,618
-47,677
-53,54
-59,096
-64,216
-68,789
-72,733
-76,005
-78,599
-80,488
-81,633
-82,045
-81,754
-80,829
-79,387
-77,515
-75,283
-72,79
-70,118
-67,371
-64,672
-62,112
-59,758
-57,677
-55,913
-54,539
-53,645
-53,259
-53,382
-53,993
-55,018
-56,403
-58,104
-60,02
-62,066
-64,173
-66,258
-68,286
-70,236
-72,068
-73,747
-75,225
-76,435
-77,35
-77,961
-78,253
-78,249
-77,967
-77,428
-76,722
-75,925
-75,082
-74,24
-73,411
-72,591
-71,796
-71,031
-70,285
-69,565
-68,87
-68,202
-67,592
-67,054
-66,6
-66,237
-65,928
-65,646
-65,387
-65,147
-64,933
-64,769
-64,678
-64,702
-64,928
-65,432
-66,269
-67,472
-69,035
-70,943
-73,18
-75,721
-78,543
-81,61
-84,876
-88,291
-91,809
-95,372
-98,9
-102,281
-105,354
-107,949
-109,928
-111,196
-111,69
-111,382
-110,255
-108,301
-105,543
-102,033
-97,818
-92,964
-87,537
-81,604
-75,272
-68,687
-62,038
-55,548
-49,425
-43,818
-38,856
-34,635
-31,245
-28,808
-27,416
-27,12
-27,961
-29,94
-33,061
-37,357
-42,807
-49,34
-56,866
-65,216
-74,303
-84,17
-94,705
-105,714
-116,894
-127,644
-137,382
-145,687
-151,913
-155,394
-156,062
-154,043
-149,878
-145,108
-141,261
-139,609
-141,824
-147,887
-155,349
-162,278
-167,171
-171,165
-178,246
-187,904
-192,719
-178,707
-131,723
-48,184
62,35
180,729
289,076
380,501
456,777
521,242
573,094
602,921
598,055
553,159
468,894
351,615
215,537
74,597
-55,121
-154,236
-213,858
-234,65
-226,732
-209,299
-194,44
-185,972
-182,171
-176,622
-167,943
-158,633
-151,329
-149,109
-152,141
-158,457
-166,49
-174,344
-180,316
-183,805
-184,57
-182,719
-178,895
-173,725
-167,716
-161,525
-155,81
-150,908
-146,98
-144,024
-141,859
-140,373
-139,479
-139,033
-138,884
-138,908
-139,013
-139,147
-139,282
-139,378
-139,384
-139,266
-139,005
-138,604
-138,058
-137,358
-136,484
-135,401
-134,103
-132,599
-130,902
-129,037
-127,027
-124,893
-122,658
-120,347
-117,969
-115,522
-112,998
-110,386
-107,687
-104,914
-102,089
-99,251
-96,426
-93,631
-90,881
-88,18
-85,533
-82,938
-80,392
-77,887
-75,421
-73,005
-70,645
-68,35
-66,119
-63,945
-61,813
-59,703
-57,596
-55,475
-53,328
-51,144
-48,916
-46,643
-44,323
-41,962
-39,562
-37,12
-34,637
-32,111
-29,542
-26,935
-24,295
-21,627
-18,941
-16,244
-13,545
-10,853
-8,176
-5,52
-2,892
-0,298
2,255
4,761
7,212
9,598
11,913
14,147
16,293
18,341
20,284
22,114
23,825
25,411
26,868
28,19
29,373
30,415
31,313
32,064
32,668
33,123
33,429
33,587
33,598
33,462
33,181
32,759
32,198
31,502
30,675
29,72
28,645
27,453
26,151
24,746
23,243
21,651
19,978
18,23
16,416
14,545
12,626
10,666
8,674
6,657
4,625
2,583
0,54
-1,497
-3,523
-5,529
-7,51
-9,461
-11,373
-13,242
-15,062
-16,827
-18,531
-20,169
-21,737
-23,23
-24,644
-25,974
-27,219
-28,375
-29,441
-30,415
-31,297
-32,086
-32,784
-33,393
-33,914
-34,349
-34,702
-34,976
-35,174
-35,299
-35,357
-35,349
-35,28
-35,154
-34,974
-34,745
-34,47
-34,154
-33,8
-33,414
-33,001
-32,564
-32,109
-31,64
-31,162
-30,679
-30,196
-29,717
-29,245
-28,783
-28,333
-27,898
-27,477
-27,07
-26,674
-26,287
-25,906
-25,528
-25,148
-24,762
-24,366
-23,955
-23,526
-23,074
-22,593
-22,076
-21,518
-20,913
-20,254
-19,535
-18,748
-17,885
-16,941
-15,911
-14,791
-13,573
-12,25
-10,811
-9,249
-7,565
-5,76
-3,837
-1,803
0,335
2,56
4,848
7,178
9,532
11,897
14,264
16,619
18,941
21,213
23,415
25,541
27,599
29,595
31,54
33,457
35,374
37,332
39,39
41,589
43,953
46,499
49,232
52,167
55,333
58,747
62,41
66,309
70,409
74,666
79,035
83,446
87,811
92,03
95,988
99,592
102,786
105,514
107,734
109,391
110,395
110,664
110,14
108,782
106,585
103,583
99,803
95,285
90,102
84,315
77,996
71,245
64,072
56,421
48,353
40,048
31,883
24,511
18,532
14,358
12,461
13,268
16,781
22,714
30,143
37,337
42,741
45,147
43,45
37,157
26,77
13,421
-0,42
-10,849
-14,215
-6,964
14,207
51,088
103,886
171,403
250,153
334,722
419,188
496,464
559,212
601,573
620,545
616,417
590,812
545,502
478,539
386,979
274,969
153,975
44,159
-33,105
-68,941
-68,45
-47,858
-25,067
-9,718
-2,095
3,251
10,037
18,129
25,066
27,322
24,092
16,963
7,586
-1,982
-10,112
-16,352
-20,45
-22,423
-22,864
-22,358
-21,376
-20,521
-20,315
-20,981
-22,623
-25,202
-28,483
-32,293
-36,487
-40,891
-45,372
-49,806
-54,083
-58,117
-61,829
-65,147
-68,017
-70,383
-72,195
-73,445
-74,14
-74,328
-74,098
-73,519
-72,651
-71,543
-70,221
-68,737
-67,161
-65,554
-63,98
-62,496
-61,142
-59,982
-59,099
-58,534
-58,3
-58,366
-58,657
-59,122
-59,73
-60,457
-61,297
-62,221
-63,192
-64,19
-65,2
-66,207
-67,202
-68,125
-68,901
-69,488
-69,866
-70,055
-70,112
-70,067
-69,938
-69,74
-69,477
-69,169
-68,834
-68,455
-68,015
-67,488
-66,835
-66,066
-65,197
-64,214
-63,102
-61,813
-60,269
-58,425
-56,247
-53,695
-50,748
-47,377
-43,553
-39,295
-34,631
-29,606
-24,304
-18,783
-13,109
-7,385
-1,704
3,815
9,023
13,802
18,052
21,67
24,575
26,679
27,883
28,136
27,412
25,707
23,067
19,541
15,193
10,132
4,477
-1,629
-8,009
-14,504
-20,985
-27,32
-33,388
-39,058
-44,174
-48,623
-52,325
-55,216
-57,27
-58,461
-58,779
-58,26
-56,977
-55,031
-52,55
-49,656
-46,44
-43,001
-39,448
-35,907
-32,519
-29,389
-26,598
-24,215
-22,308
-20,963
-20,259
-20,234
-20,884
-22,188
-24,106
-26,613
-29,695
-33,317
-37,42
-41,926
-46,758
-51,876
-57,242
-62,807
-68,495
-74,194
-79,792
-85,198
-90,34
-95,133
-99,495
-103,33
-106,535
-109,051
-110,831
-111,838
-112,02
-111,3
-109,625
-106,977
-103,381
-98,899
-93,601
-87,556
-80,85
-73,609
-65,968
-58,076
-50,075
-42,077
-34,205
-26,597
-19,413
-12,824
-6,964
-1,923
2,239
5,486
7,791
9,133
9,519
9,002
7,632
5,466
2,552
-1,073
-5,339
-10,139
-15,338
-20,801
-26,42
-32,109
-37,79
-43,388
-48,83
-54,037
-58,952
-63,532
-67,71
-71,421
-74,597
-77,161
-79,085
-80,369
-81,037
-81,121
-80,643
-79,622
-78,091
-76,092
-73,669
-70,879
-67,776
-64,423
-60,92
-57,356
-53,824
-50,417
-47,199
-44,216
-41,506
-39,094
-36,999
-35,24
-33,823
-32,743
-31,997
-31,568
-31,438
-31,58
-31,951
-32,514
-33,238
-34,088
-35,044
-36,088
-37,197
-38,357
-39,547
-40,746
-41,94
-43,118
-44,273
-45,404
-46,498
-47,54
-48,513
-49,394
-50,164
-50,807
-51,304
-51,66
-51,895
-52,038
-52,145
-52,255
-52,402
-52,646
-53,037
-53,631
-54,519
-55,762
-57,464
-59,807
-62,846
-66,517
-70,654
-74,856
-78,726
-82,016
-84,297
-85,051
-84,203
-81,957
-78,987
-76,631
-75,886
-77,331
-81,777
-89,833
-101,229
-115,064
-129,24
-140,487
-146,28
-144,271
-131,596
-106,241
-67,106
-15,212
45,128
110,259
177,958
246,942
317,906
385,318
438,733
468,763
465,181
428,049
367,289
292,284
214,642
140,754
69,463
1,711
-61,148
-117,07
-161,42
-192,229
-210,425
-217,589
-216
-207,943
-195,224
-179,473
-162,614
-146,154
-130,707
-116,768
-104,996
-95,639
-88,972
-85,526
-85,11
-87,29
-91,864
-98,126
-104,989
-111,803
-117,855
-122,191
-124,506
-124,785
-123,049
-119,914
-116,235
-112,458
-108,988
-106,273
-104,4
-103,363
-103,115
-103,27
-103,386
-103,247
-102,716
-101,729
-100,345
-98,581
-96,451
-94,058
-91,505
-88,858
-86,157
-83,405
-80,588
-77,728
-74,867
-72,05
-69,316
-66,683
-64,16
-61,751
-59,459
-57,283
-55,216
-53,244
-51,356
-49,545
-47,806
-46,14
-44,541
-42,999
-41,5
-40,029
-38,568
-37,106
-35,631
-34,134
-32,607
-31,043
-29,436
-27,783
-26,078
-24,316
-22,493
-20,603
-18,641
-16,604
-14,492
-12,302
-10,037
-7,697
-5,285
-2,806
-0,264
2,335
4,987
7,682
10,414
13,175
15,955
18,745
21,535
24,316
27,078
29,809
32,5
35,142
37,724
40,236
42,67
45,017
47,269
49,421
51,465
53,395
55,208
56,9
58,467
59,909
61,222
62,407
63,464
64,394
65,199
65,882
66,445
66,894
67,233
67,467
67,603
67,646
67,602
67,479
67,283
67,022
66,701
66,329
65,912
65,459
64,975
64,467
63,944
63,411
62,875
62,341
61,815
61,302
60,806
60,332
59,884
59,466
59,08
58,731
58,42
58,15
57,925
57,745
57,613
57,53
57,497
57,515
57,587
57,711
57,891
58,126
58,417
58,767
59,174
59,641
60,167
60,753
61,399
62,104
62,868
63,691
64,571
65,508
66,501
67,548
68,648
69,798
70,998
72,246
73,538
74,872
76,246
77,656
79,1
80,574
82,074
83,596
85,137
86,691
88,255
89,824
91,391
92,952
94,502
96,034
97,543
99,023
100,469
101,875
103,236
104,548
105,805
107,005
108,144
109,22
110,231
111,177
112,056
112,867
113,611
114,287
114,896
115,438
115,912
116,318
116,658
116,933
117,146
117,3
117,398
117,444
117,444
117,401
117,322
117,211
117,071
116,906
116,72
116,519
116,311
116,101
115,89
115,678
115,464
115,241
115,004
114,742
114,436
114,073
113,637
113,116
112,502
111,789
110,975
110,058
109,037
107,917
106,713
105,443
104,127
102,798
101,482
100,215
99,046
98,018
97,175
96,568
96,235
96,203
96,49
97,099
98,029
99,266
100,779
102,528
104,456
106,494
108,58
110,647
112,613
114,392
115,879
116,934
117,431
117,264
116,352
114,662
112,152
108,781
104,536
99,412
93,436
86,688
79,189
70,896
61,899
52,373
42,673
33,446
25,293
18,671
14,131
12,121
12,697
15,745
20,557
25,699
29,882
31,903
30,57
25,462
17,075
6,278
-4,914
-13,186
-15,344
-7,733
13,571
49,104
96,504
154,065
218,128
288,571
370,605
460,951
552,308
631,7
675,924
673,382
622,388
526,966
404,959
272,63
143,076
32,514
-47,516
-90,787
-96,709
-73,627
-38,378
-7,491
8,839
5,061
-13,285
-34,966
-53,51
-63,245
-64,901
-65,111
-66,492
-70,379
-76,023
-79,759
-80,304
-77,879
-72,812
-66,21
-58,774
-50,77
-42,769
-35,218
-28,289
-22,078
-16,553
-11,695
-7,562
-4,188
-1,58
0,26
1,347
1,671
1,237
0,11
-1,626
-3,872
-6,515
-9,475
-12,691
-16,094
-19,636
-23,27
-26,929
-30,54
-34,01
-37,236
-40,156
-42,725
-44,918
-46,731
-48,165
-49,233
-49,968
-50,401
-50,555
-50,449
-50,09
-49,49
-48,678
-47,697
-46,605
-45,456
-44,291
-43,134
-42,006
-40,918
-39,881
-38,892
-37,939
-37,006
-36,082
-35,161
-34,243
-33,326
-32,398
-31,444
-30,445
-29,385
-28,259
-27,06
-25,788
-24,443
-23,029
-21,554
-20,033
-18,48
-16,907
-15,325
-13,741
-12,166
-10,611
-9,088
-7,61
-6,187
-4,827
-3,54
-2,334
-1,217
-0,196
0,726
1,545
2,256
2,857
3,343
3,712
3,96
4,087
4,09
3,968
3,722
3,352
2,86
2,25
1,522
0,682
-0,267
-1,32
-2,473
-3,72
-5,054
-6,47
-7,962
-9,522
-11,143
-12,82
-14,546
-16,313
-18,116
-19,948
-21,803
-23,674
-25,555
-27,441
-29,326
-31,204
-33,07
-34,917
-36,743
-38,54
-40,305
-42,033
-43,72
-45,361
-46,954
-48,495
-49,98
-51,408
-52,775
-54,079
-55,319
-56,492
-57,597
-58,633
-59,599
-60,493
-61,316
-62,067
-62,746
-63,351
-63,884
-64,345
-64,732
-65,048
-65,292
-65,465
-65,569
-65,604
-65,573
-65,478
-65,32
-65,102
-64,826
-64,496
-64,115
-63,685
-63,211
-62,696
-62,144
-61,558
-60,943
-60,301
-59,638
-58,957
-58,26
-57,553
-56,838
-56,119
-55,4
-54,683
-53,972
-53,271
-52,583
-51,91
-51,255
-50,621
-50,01
-49,423
-48,862
-48,328
-47,822
-47,345
-46,896
-46,476
-46,084
-45,72
-45,384
-45,073
-44,786
-44,521
-44,277
-44,05
-43,839
-43,642
-43,456
-43,28
-43,112
-42,949
-42,789
-42,631
-42,471
-42,308
-42,137
-41,957
-41,764
-41,555
-41,329
-41,084
-40,82
-40,535
-40,232
-39,91
-39,573
-39,222
-38,858
-38,481
-38,092
-37,691
-37,279
-36,858
-36,43
-35,995
-35,558
-35,125
-34,7
-34,288
-33,892
-33,505
-33,128
-32,765
-32,419
-32,098
-31,811
-31,567
-31,384
-31,285
-31,293
-31,428
-31,699
-32,095
-32,611
-33,241
-33,982
-34,84
-35,808
-36,862
-37,986
-39,162
-40,365
-41,567
-42,71
-43,707
-44,479
-44,959
-45,101
-44,897
-44,335
-43,403
-42,095
-40,408
-38,362
-36,013
-33,401
-30,553
-27,525
-24,396
-21,299
-18,431
-15,962
-14,019
-12,715
-12,14
-12,383
-13,54
-15,658
-18,717
-22,721
-27,709
-33,648
-40,451
-47,859
-55,4
-62,661
-69,327
-74,905
-78,854
-80,942
-81,097
-79,817
-78,144
-76,618
-75,686
-76,345
-79,396
-85,008
-91,944
-96,714
-95,542
-86,958
-73,478
-58,817
-44,613
-29,312
-3,365
43,323
115,323
214,482
330,066
443,482
538,009
594,738
601,875
560,551
474,849
353,905
215,417
74,116
-52,266
-142,47
-190,446
-198,406
-177,619
-150,348
-129,081
-117,82
-115,252
-113,311
-108,887
-103,643
-99,846
-100,787
-106,73
-115,387
-124,597
-132,099
-136,779
-138,628
-137,677
-134,341
-129,308
-123,241
-116,955
-111,266
-106,575
-103,025
-100,672
-99,412
-99,178
-99,954
-101,609
-103,986
-106,969
-110,43
-114,259
-118,349
-122,519
-126,584
-130,409
-133,884
-136,957
-139,61
-141,807
-143,521
-144,731
-145,409
-145,551
-145,165
-144,258
-142,869
-141,053
-138,886
-136,479
-133,935
-131,327
-128,714
-126,128
-123,587
-121,109
-118,71
-116,392
-114,167
-112,045
-110,037
-108,155
-106,405
-104,779
-103,259
-101,818
-100,423
-99,057
-97,703
-96,351
-94,995
-93,63
-92,255
-90,876
-89,494
-88,108
-86,717
-85,314
-83,894
-82,454
-80,994
-79,513
-78,011
-76,486
-74,937
-73,365
-71,771
-70,156
-68,521
-66,866
-65,191
-63,5
-61,797
-60,084
-58,364
-56,637
-54,907
-53,182
-51,47
-49,786
-48,14
-46,542
-45,001
-43,526
-42,12
-40,783
-39,504
-38,265
-37,055
-35,87
-34,713
-33,596
-32,529
-31,526
-30,604
-29,782
-29,073
-28,494
-28,051
-27,748
-27,606
-27,653
-27,932
-28,51
-29,436
-30,744
-32,468
-34,613
-37,165
-40,102
-43,37
-46,898
-50,627
-54,499
-58,466
-62,495
-66,525
-70,489
-74,311
-77,882
-81,107
-83,906
-86,179
-87,865
-88,946
-89,421
-89,343
-88,799
-87,851
-86,569
-85,026
-83,267
-81,362
-79,387
-77,4
-75,489
-73,744
-72,256
-71,152
-70,538
-70,456
-70,933
-71,95
-73,443
-75,387
-77,738
-80,423
-83,395
-86,597
-89,969
-93,485
-97,105
-100,762
-104,367
-107,794
-110,909
-113,634
-115,907
-117,68
-118,936
-119,623
-119,706
-119,191
-118,07
-116,326
-113,945
-110,878
-107,08
-102,564
-97,367
-91,559
-85,242
-78,488
-71,354
-63,918
-56,244
-48,419
-40,529
-32,642
-24,835
-17,222
-9,925
-3,084
3,158
8,711
13,511
17,511
20,704
23,082
24,633
25,366
25,29
24,41
22,749
20,35
17,276
13,638
9,575
5,23
0,756
-3,711
-8,05
-12,146
-15,922
-19,317
-22,277
-24,751
-26,684
-27,998
-28,637
-28,583
-27,839
-26,449
-24,477
-21,993
-19,082
-15,846
-12,391
-8,806
-5,156
-1,481
2,185
5,803
9,317
12,662
15,789
18,672
21,297
23,667
25,785
27,658
29,314
30,8
32,168
33,456
34,681
35,846
36,958
38,026
39,067
40,09
41,086
42,044
42,952
43,795
44,58
45,309
45,979
46,588
47,14
47,642
48,114
48,576
49,026
49,461
49,895
50,344
50,844
51,424
52,102
52,898
53,807
54,792
55,8
56,75
57,547
58,123
58,401
58,286
57,724
56,652
54,975
52,651
49,593
45,641
40,776
35,078
28,733
22,194
15,946
10,35
5,951
3,372
2,744
3,92
6,378
8,864
10,354
10,201
7,334
0,856
-8,968
-21,15
-33,847
-43,935
-48,625
-45,494
-31,121
-2,181
41,444
97,109
161,667
230,357
303,032
384,398
471,944
558,498
630,809
668,118
659,899
606,121
513,121
396,965
272,749
153,07
52,015
-21,358
-63,672
-78,181
-76,287
-68,839
-62,445
-58,715
-53,915
-46,349
-37,286
-28,92
-24,685
-25,733
-30,609
-37,596
-44,614
-49,642
-51,854
-50,975
-46,895
-40,129
-31,368
-21,231
-10,563
-0,25
9,203
17,531
24,606
30,521
35,334
39,02
41,663
43,372
44,237
44,364
43,835
42,717
41,126
39,223
37,18
35,158
33,29
31,654
30,311
29,31
28,695
28,519
28,807
29,566
30,788
32,45
34,522
36,964
39,722
42,716
45,859
49,066
52,257
55,384
58,413
61,316
64,077
66,676
69,103
71,359
73,449
75,381
77,162
78,8
80,312
81,722
83,059
84,357
85,65
86,971
88,345
89,789
91,312
92,916
94,604
96,375
98,226
100,152
102,145
104,203
106,334
108,551
110,868
113,288
115,806
118,407
121,077
123,812
126,617
129,503
132,47
135,519
138,656
141,899
145,268
148,765
152,368
156,025
159,689
163,323
166,908
170,431
173,875
177,215
180,417
183,453
186,303
188,946
191,35
193,463
195,228
196,615
197,634
198,321
198,713
198,83
198,68
198,268
197,607
196,717
195,616
194,311
192,801
191,098
189,225
187,225
185,145
183,011
180,819
178,547
176,177
173,705
171,134
168,465
165,693
162,816
159,84
156,784
153,669
150,508
147,304
144,052
140,745
137,387
133,995
130,592
127,199
123,828
120,495
117,215
114,005
110,881
107,851
104,914
102,072
99,327
96,688
94,162
91,758
89,479
87,328
85,305
83,414
81,654
80,025
78,526
77,152
75,901
74,771
73,76
72,867
72,089
71,419
70,853
70,386
70,012
69,725
69,515
69,377
69,3
69,278
69,302
69,365
69,457
69,57
69,696
69,827
69,955
70,071
70,168
70,237
70,273
70,266
70,21
70,098
69,924
69,682
69,367
68,974
68,501
67,944
67,302
66,574
65,76
64,859
63,875
62,808
61,662
60,441
59,149
57,793
56,379
54,914
53,407
51,864
50,295
48,708
47,112
45,516
43,929
42,358
40,814
39,305
37,838
36,424
35,069
33,781
32,567
31,435
30,388
29,434
28,575
27,813
27,149
26,584
26,115
25,742
25,46
25,265
25,153
25,121
25,161
25,271
25,442
25,666
25,933
26,234
26,555
26,888
27,22
27,539
27,836
28,106
28,341
28,534
28,675
28,747
28,734
28,623
28,398
28,048
27,566
26,951
26,211
25,363
24,426
23,417
22,351
21,234
20,075
18,888
17,689
16,503
15,354
14,261
13,246
12,327
11,503
10,742
9,995
9,183
8,236
7,11
5,75
4,095
2,088
-0,346
-3,278
-6,739
-10,817
-15,643
-21,233
-27,533
-34,327
-41,148
-47,546
-53,158
-57,493
-60,106
-60,939
-60,108
-58,251
-56,644
-56,344
-58,25
-63,357
-72,104
-84,024
-98,244
-112,853
-124,643
-130,688
-127,906
-112,748
-84,296
-44,4
5,404
62,076
124,943
197,945
278,986
360,902
431,342
471,479
470,892
429,567
353,892
256,331
148,139
37,739
-64,154
-144,656
-195,238
-213,414
-206,23
-189,198
-173,302
-163,533
-159,043
-153,729
-145,803
-136,858
-128,92
-125,045
-125,655
-129,073
-134,073
-139,137
-142,919
-145,053
-145,396
-144,04
-141,514
-138,33
-134,882
-131,641
-129,086
-127,447
-126,805
-127,119
-128,195
-129,869
-132,021
-134,503
-137,154
-139,836
-142,429
-144,824
-146,971
-148,832
-150,365
-151,548
-152,369
-152,827
-152,94
-152,741
-152,262
-151,529
-150,577
-149,431
-148,13
-146,719
-145,245
-143,756
-142,287
-140,863
-139,5
-138,211
-137,002
-135,873
-134,817
-133,819
-132,868
-131,954
-131,069
-130,209
-129,362
-128,518
-127,662
-126,784
-125,873
-124,92
-123,915
-122,851
-121,72
-120,517
-119,238
-117,88
-116,44
-114,915
-113,299
-111,589
-109,781
-107,875
-105,866
-103,753
-101,536
-99,215
-96,792
-94,269
-91,65
-88,939
-86,14
-83,259
-80,303
-77,279
-74,195
-71,058
-67,878
-64,663
-61,424
-58,17
-54,911
-51,657
-48,419
-45,207
-42,031
-38,9
-35,825
-32,814
-29,875
-27,016
-24,245
-21,568
-18,991
-16,52
-14,16
-11,916
-9,792
-7,79
-5,913
-4,163
-2,539
-1,043
0,326
1,572
2,694
3,698
4,585
5,36
6,026
6,588
7,052
7,422
7,703
7,902
8,024
8,075
8,061
7,987
7,86
7,685
7,467
7,21
6,92
6,601
6,257
5,894
5,514
5,123
4,725
4,323
3,922
3,526
3,136
2,756
2,389
2,036
1,699
1,381
1,083
0,807
0,553
0,324
0,12
-0,057
-0,208
-0,331
-0,427
-0,495
-0,535
-0,546
-0,529
-0,483
-0,407
-0,302
-0,167
-0,001
0,194
0,419
0,673
0,954
1,261
1,592
1,946
2,321
2,715
3,126
3,551
3,988
4,435
4,887
5,342
5,797
6,248
6,693
7,126
7,547
7,951
8,334
8,696
9,031
9,336
9,609
9,845
10,04
10,193
10,297
10,352
10,353
10,298
10,185
10,012
9,778
9,481
9,122
8,698
8,211
7,662
7,05
6,379
5,651
4,87
4,039
3,161
2,241
1,282
0,289
-0,735
-1,788
-2,868
-3,97
-5,091
-6,224
-7,364
-8,504
-9,637
-10,756
-11,853
-12,919
-13,948
-14,936
-15,879
-16,774
-17,613
-18,389
-19,094
-19,73
-20,297
-20,799
-21,242
-21,631
-21,981
-22,312
-22,645
-23
-23,385
-23,8
-24,241
-24,712
-25,21
-25,742
-26,301
-26,865
-27,416
-27,94
-28,416
-28,829
-29,145
-29,313
-29,291
-29,046
-28,562
-27,855
-26,937
-25,818
-24,514
-23,037
-21,419
-19,718
-17,978
-16,235
-14,527
-12,885
-11,361
-10,033
-8,96
-8,188
-7,735
-7,589
-7,739
-8,183
-8,918
-9,966
-11,324
-12,962
-14,857
-16,978
-19,3
-21,832
-24,562
-27,472
-30,566
-33,819
-37,275
-41,086
-45,277
-49,75
-54,254
-58,249
-61,235
-62,929
-62,918
-60,783
-56,551
-50,496
-43,492
-37,232
-33,167
-32,365
-35,927
-44,386
-57,225
-73,304
-90,163
-104,02
-111,321
-108,517
-92,061
-59,434
-11,067
49,977
119,667
192,183
265,958
343,277
420,438
492,528
549,206
571,292
550,644
484,886
376,066
244,221
107,539
-15,837
-103,041
-149,049
-157,167
-137,298
-110,543
-88,734
-75,689
-71,03
-67,699
-62,788
-57,707
-54,255
-55,319
-61,109
-69,502
-78,496
-85,952
-90,804
-93,029
-92,655
-90,069
-85,896
-80,749
-75,369
-70,49
-66,479
-63,46
-61,46
-60,362
-60,061
-60,48
-61,472
-62,879
-64,597
-66,541
-68,638
-70,831
-73,017
-75,072
-76,905
-78,451
-79,675
-80,569
-81,128
-81,352
-81,256
-80,869
-80,22
-79,34
-78,256
-76,995
-75,596
-74,102
-72,564
-71,033
-69,548
-68,133
-66,805
-65,569
-64,425
-63,37
-62,394
-61,48
-60,618
-59,797
-59,012
-58,255
-57,519
-56,792
-56,063
-55,32
-54,555
-53,759
-52,924
-52,045
-51,115
-50,133
-49,095
-48,002
-46,851
-45,639
-44,363
-43,021
-41,61
-40,128
-38,575
-36,95
-35,253
-33,487
-31,655
-29,76
-27,809
-25,807
-23,76
-21,674
-19,558
-17,42
-15,266
-13,107
-10,951
-8,807
-6,685
-4,595
-2,546
-0,549
1,385
3,246
5,025
6,711
8,295
9,768
11,122
12,346
13,435
14,38
15,175
15,814
16,291
16,602
16,744
16,714
16,512
16,136
15,589
14,871
13,986
12,936
11,726
10,36
8,844
7,183
5,384
3,454
1,4
-0,769
-3,044
-5,416
-7,875
-10,411
-13,013
-15,673
-18,377
-21,118
-23,883
-26,662
-29,445
-32,221
-34,979
-37,711
-40,406
-43,056
-45,651
-48,184
-50,648
-53,037
-55,344
-57,563
-59,692
-61,724
-63,655
-65,483
-67,205
-68,817
-70,318
-71,706
-72,982
-74,144
-75,194
-76,132
-76,962
-77,685
-78,303
-78,821
-79,242
-79,57
-79,808
-79,962
-80,036
-80,036
-79,968
-79,836
-79,648
-79,408
-79,124
-78,799
-78,441
-78,053
-77,642
-77,212
-76,769
-76,317
-75,863
-75,41
-74,965
-74,531
-74,114
-73,719
-73,349
-73,006
-72,694
-72,414
-72,169
-71,957
-71,78
-71,636
-71,525
-71,447
-71,402
-71,389
-71,404
-71,448
-71,516
-71,607
-71,715
-71,836
-71,961
-72,084
-72,198
-72,298
-72,378
-72,432
-72,453
-72,434
-72,372
-72,26
-72,091
-71,856
-71,538
-71,129
-70,626
-70,029
-69,344
-68,576
-67,725
-66,8
-65,812
-64,769
-63,674
-62,52
-61,29
-59,977
-58,581
-57,11
-55,581
-54,002
-52,368
-50,675
-48,914
-47,079
-45,167
-43,164
-41,043
-38,796
-36,434
-33,989
-31,516
-29,055
-26,631
-24,264
-21,968
-19,765
-17,689
-15,772
-14,038
-12,518
-11,233
-10,215
-9,506
-9,116
-9,031
-9,214
-9,598
-10,132
-10,782
-11,514
-12,287
-13,067
-13,813
-14,488
-15,069
-15,53
-15,861
-16,079
-16,208
-16,294
-16,395
-16,556
-16,847
-17,358
-18,165
-19,339
-20,955
-23,04
-25,667
-28,996
-33,063
-37,772
-42,868
-47,861
-52,262
-55,725
-57,759
-57,835
-55,848
-51,969
-46,971
-42,19
-38,683
-37,61
-40,171
-46,905
-57,715
-70,557
-82,217
-90,592
-92,795
-88,272
-76,374
-51,786
-13,893
39,451
110,322
192,153
284,872
385,17
480,971
564,108
618,752
628,73
592,318
510,641
390,937
252,009
109,064
-20,663
-116,376
-170,533
-182,5
-159,992
-120,458
-78,129
-44,306
-24,449
-18,935
-24,857
-34,995
-44,709
-50,245
-50,498
-49,56
-49,304
-50,139
-51,864
-51,926
-49,18
-44,183
-37,533
-30,271
-23,292
-16,989
-11,614
-7,342
-4,179
-1,968
-0,599
0,004
-0,019
-0,56
-1,515
-2,753
-4,184
-5,741
-7,312
-8,775
-10,035
-11,017
-11,687
-12,042
-12,079
-11,801
-11,226
-10,377
-9,284
-7,979
-6,49
-4,845
-3,082
-1,246
0,613
2,445
4,214
5,897
7,482
8,965
10,349
11,641
12,855
14,006
15,109
16,175
17,211
18,225
19,227
20,229
21,242
22,278
23,347
24,457
25,615
26,825
28,091
29,415
30,798
32,238
33,736
35,293
36,91
38,587
40,327
42,128
43,99
45,913
47,896
49,935
52,026
54,165
56,347
58,565
60,813
63,084
65,371
67,664
69,956
72,237
74,501
76,737
78,936
81,089
83,186
85,217
87,175
89,047
90,826
92,501
94,063
95,505
96,819
97,998
99,035
99,923
100,658
101,235
101,652
101,904
101,987
101,897
101,631
101,193
100,588
99,82
98,891
97,81
96,58
95,212
93,719
92,1
90,361
88,505
86,532
84,457
82,292
80,05
77,743
75,376
72,951
70,479
67,971
65,43
62,863
60,267
57,639
55,003
52,38
49,788
47,251
44,773
42,358
40,017
37,758
35,594
33,54
31,598
29,769
28,07
26,511
25,112
23,894
22,839
21,928
21,152
20,495
19,954
19,529
19,206
18,973
18,824
18,747
18,74
18,801
18,91
19,053
19,209
19,356
19,5
19,651
19,805
19,967
20,132
20,295
20,46
20,63
20,801
20,968
21,125
21,264
21,39
21,507
21,616
21,724
21,821
21,9
21,958
21,992
21,998
21,977
21,923
21,832
21,706
21,548
21,361
21,147
20,906
20,636
20,339
20,013
19,661
19,283
18,881
18,455
18,004
17,531
17,036
16,52
15,982
15,42
14,834
14,223
13,587
12,928
12,248
11,548
10,832
10,104
9,366
8,624
7,881
7,139
6,402
5,671
4,948
4,237
3,541
2,862
2,206
1,576
0,978
0,417
-0,103
-0,575
-0,996
-1,361
-1,668
-1,913
-2,091
-2,194
-2,218
-2,162
-2,028
-1,82
-1,546
-1,213
-0,837
-0,438
-0,036
0,349
0,701
1,009
1,263
1,455
1,577
1,617
1,578
1,473
1,32
1,147
0,978
0,838
0,76
0,793
0,979
1,348
1,927
2,726
3,757
5,032
6,559
8,337
10,343
12,53
14,836
17,193
19,535
21,806
23,942
25,862
27,495
28,791
29,707
30,216
30,282
29,831
28,799
27,142
24,849
21,966
18,55
14,636
10,253
5,416
0,12
-5,576
-11,668
-18,268
-25,351
-32,778
-40,276
-47,271
-53,2
-57,712
-60,329
-60,522
-58,32
-54,086
-48,614
-43,505
-40,082
-39,217
-42,11
-49,653
-61,477
-76,383
-92,127
-105,125
-112,16
-110,314
-95,877
-65,713
-19,814
39,225
107,876
182,117
262,213
350,35
442,211
527,286
588,754
610,459
587,993
528,295
446,169
353,374
253,919
149,701
42,981
-54,93
-127,977
-167,831
-175,351
-162,579
-144,963
-131,269
-123,102
-116,835
-109,627
-101,817
-95,486
-93,417
-96,067
-101,891
-109,257
-116,147
-120,955
-123,138
-122,436
-118,967
-113,386
-106,376
-98,56
-90,652
-83,283
-76,786
-71,354
-67,03
-63,684
-61,203
-59,495
-58,436
-57,927
-57,918
-58,365
-59,206
-60,378
-61,779
-63,291
-64,825
-66,298
-67,631
-68,747
-69,587
-70,124
-70,354
-70,292
-69,939
-69,279
-68,291
-66,969
-65,332
-63,418
-61,267
-58,92
-56,414
-53,794
-51,117
-48,444
-45,818
-43,257
-40,766
-38,346
-36,001
-33,749
-31,606
-29,573
-27,649
-25,828
-24,104
-22,477
-20,936
-19,464
-18,034
-16,614
-15,183
-13,73
-12,247
-10,729
-9,168
-7,557
-5,893
-4,177
-2,41
-0,59
1,284
3,218
5,21
7,255
9,347
11,477
13,637
15,823
18,025
20,236
22,449
24,657
26,852
29,03
31,183
33,303
35,38
37,404
39,365
41,252
43,056
44,766
46,37
47,862
49,23
50,469
51,569
52,524
53,328
53,974
54,457
54,775
54,922
54,898
54,7
54,33
53,787
53,076
52,198
51,159
49,963
48,617
47,127
45,5
43,745
41,87
39,885
37,799
35,624
33,369
31,047
28,67
26,248
23,795
21,322
18,841
16,364
13,903
11,468
9,07
6,72
4,428
2,202
0,051
-2,016
-3,994
-5,875
-7,655
-9,33
-10,896
-12,35
-13,691
-14,917
-16,028
-17,025
-17,909
-18,681
-19,344
-19,9
-20,353
-20,706
-20,963
-21,129
-21,209
-21,208
-21,13
-20,981
-20,767
-20,493
-20,165
-19,788
-19,368
-18,91
-18,418
-17,898
-17,353
-16,787
-16,203
-15,605
-14,994
-14,372
-13,74
-13,099
-12,449
-11,791
-11,123
-10,445
-9,756
-9,055
-8,34
-7,611
-6,866
-6,104
-5,326
-4,529
-3,713
-2,878
-2,023
-1,148
-0,252
0,665
1,603
2,563
3,542
4,543
5,562
6,6
7,654
8,725
9,808
10,903
12,006
13,114
14,223
15,331
16,434
17,527
18,605
19,666
20,705
21,719
22,705
23,66
24,584
25,475
26,334
27,161
27,957
28,723
29,46
30,172
30,858
31,521
32,161
32,783
33,389
33,985
34,575
35,163
35,754
36,354
36,969
37,606
38,27
38,966
39,7
40,478
41,31
42,209
43,182
44,232
45,359
46,562
47,835
49,174
50,564
51,985
53,42
54,855
56,284
57,703
59,104
60,475
61,797
63,053
64,241
65,369
66,446
67,486
68,509
69,547
70,646
71,867
73,256
74,837
76,625
78,621
80,842
83,316
86,069
89,116
92,451
96,051
99,892
103,943
108,153
112,452
116,739
120,895
124,833
128,491
131,819
134,774
137,282
139,228
140,512
141,049
140,779
139,68
137,713
134,833
131,032
126,321
120,754
114,448
107,436
99,669
91,218
82,244
73,072
64,284
56,395
49,739
44,783
42,016
41,572
43,377
46,856
50,742
53,991
55,882
55,574
52,579
47,214
40,233
33,369
29,492
31,271
41,257
62,227
96,317
142,937
199,429
262,759
328,005
394,601
466,364
540,495
612,801
673,445
702,135
689,259
631,416
529,479
402,132
267,001
141,843
49,218
-4,1
-19,865
-7,998
10,738
24,799
30,521
29,887
31,395
37,308
45,387
53,151
56,73
55,472
51,346
45,598
39,741
35,347
32,892
32,644
34,704
38,48
43,321
48,785
54,339
59,439
63,84
67,409
70,114
72,156
73,709
74,914
75,963
77,001
78,121
79,386
80,821
82,42
84,184
86,098
88,107
90,148
92,138
93,999
95,666
97,056
98,085
98,661
98,688
98,11
96,894
95,021
92,508
89,398
85,761
81,705
77,362
72,857
68,328
63,911
59,717
55,862
52,45
49,576
47,345
45,836
45,103
45,184
46,08
47,754
50,155
53,196
56,772
60,78
65,105
69,621
74,236
78,862
83,423
87,856
92,08
96,023
99,633
102,87
105,715
108,166
110,227
111,917
113,273
114,337
115,16
115,804
116,306
116,693
116,985
117,197
117,348
117,461
117,543
117,595
117,617
117,604
117,553
117,462
117,314
117,089
116,764
116,312
115,717
114,97
114,064
112,996
111,766
110,37
108,813
107,105
105,252
103,257
101,125
98,857
96,46
93,944
91,316
88,587
85,763
82,851
79,857
76,789
73,651
70,447
67,18
63,852
60,467
57,029
53,543
50,015
46,449
42,85
39,225
35,577
31,913
28,236
24,552
20,864
17,176
13,493
9,819
6,158
2,515
-1,106
-4,699
-8,26
-11,783
-15,265
-18,699
-22,08
-25,403
-28,664
-31,855
-34,973
-38,011
-40,965
-43,83
-46,6
-49,273
-51,844
-54,312
-56,672
-58,924
-61,067
-63,098
-65,018
-66,827
-68,525
-70,113
-71,592
-72,963
-74,23
-75,395
-76,46
-77,43
-78,308
-79,099
-79,807
-80,437
-80,995
-81,488
-81,92
-82,301
-82,635
-82,933
-83,2
-83,444
-83,674
-83,896
-84,118
-84,347
-84,589
-84,851
-85,138
-85,457
-85,813
-86,211
-86,655
-87,151
-87,7
-88,307
-88,973
-89,701
-90,491
-91,345
-92,262
-93,244
-94,29
-95,4
-96,574
-97,809
-99,106
-100,461
-101,872
-103,335
-104,848
-106,406
-108,005
-109,641
-111,31
-113,008
-114,731
-116,474
-118,235
-120,008
-121,788
-123,571
-125,352
-127,125
-128,885
-130,627
-132,346
-134,038
-135,701
-137,331
-138,926
-140,484
-142,004
-143,485
-144,925
-146,321
-147,672
-148,973
-150,222
-151,417
-152,556
-153,639
-154,668
-155,644
-156,569
-157,449
-158,287
-159,085
-159,845
-160,563
-161,236
-161,869
-162,468
-163,042
-163,608
-164,179
-164,767
-165,395
-166,077
-166,818
-167,62
-168,471
-169,35
-170,251
-171,171
-172,115
-173,097
-174,115
-175,163
-176,235
-177,313
-178,379
-179,407
-180,343
-181,138
-181,768
-182,223
-182,523
-182,71
-182,802
-182,807
-182,725
-182,541
-182,256
-181,881
-181,409
-180,849
-180,223
-179,581
-179,035
-178,711
-178,691
-179,03
-179,719
-180,733
-182,097
-183,844
-186,02
-188,684
-191,83
-195,513
-199,879
-204,938
-210,585
-216,535
-222,178
-226,956
-230,529
-232,442
-232,313
-230,216
-226,363
-221,534
-217,262
-214,753
-214,928
-218,775
-226,612
-237,777
-251,302
-265,062
-275,538
-279,615
-274,137
-255,561
-222,92
-178,241
-123,468
-62,007
4,104
78,208
160,061
243,545
319,06
369,553
379,289
344,431
266,508
153,428
23,549
-107,66
-222,95
-301,9
-339,747
-340,165
-314,73
-284,953
-262,341
-249,691
-245,27
-241,578
-235,84
-229,756
-225,319
-225,182
-229,381
-235,894
-242,888
-248,472
-251,766
-252,798
-251,647
-248,768
-244,772
-240,172
-235,593
-231,641
-228,591
-226,535
-225,467
-225,219
-225,65
-226,655
-228,065
-229,726
-231,525
-233,348
-235,116
-236,76
-238,191
-239,336
-240,145
-240,579
-240,631
-240,309
-239,621
-238,591
-237,25
-235,629
-233,762
-231,682
-229,422
-227,023
-224,53
-221,99
-219,448
-216,942
-214,494
-212,126
-209,847
-207,66
-205,565
-203,554
-201,616
-199,746
-197,937
-196,183
-194,481
-192,824
-191,202
-189,607
-188,03
-186,462
-184,897
-183,326
-181,743
-180,143
-178,521
-176,874
-175,197
-173,487
-171,739
-169,947
-168,107
-166,214
-164,265
-162,256
-160,184
-158,049
-155,849
-153,586
-151,261
-148,877
-146,439
-143,949
-141,415
-138,841
-136,235
-133,605
-130,958
-128,303
-125,65
-123,007
-120,386
-117,795
-115,247
-112,751
-110,318
-107,959
-105,685
-103,505
-101,43
-99,469
-97,631
-95,923
-94,355
-92,932
-91,66
-90,545
-89,59
-88,799
-88,174
-87,714
-87,421
-87,29
-87,321
-87,509
-87,849
-88,335
-88,96
-89,715
-90,593
-91,584
-92,678
-93,864
-95,132
-96,469
-97,863
-99,303
-100,777
-102,271
-103,775
-105,274
-106,759
-108,217
-109,637
-111,008
-112,321
-113,567
-114,735
-115,819
-116,811
-117,703
-118,491
-119,17
-119,734
-120,181
-120,509
-120,715
-120,8
-120,763
-120,606
-120,331
-119,94
-119,437
-118,826
-118,111
-117,297
-116,39
-115,396
-114,322
-113,174
-111,96
-110,686
-109,359
-107,987
-106,576
-105,133
-103,664
-102,176
-100,675
-99,166
-97,654
-96,144
-94,641
-93,149
-91,672
-90,214
-88,778
-87,367
-85,983
-84,629
-83,306
-82,015
-80,757
-79,533
-78,343
-77,186
-76,063
-74,972
-73,912
-72,882
-71,879
-70,903
-69,95
-69,019
-68,106
-67,21
-66,327
-65,457
-64,596
-63,743
-62,896
-62,055
-61,218
-60,383
-59,551
-58,719
-57,888
-57,057
-56,225
-55,391
-54,555
-53,716
-52,875
-52,031
-51,184
-50,333
-49,479
-48,621
-47,759
-46,893
-46,024
-45,151
-44,275
-43,398
-42,519
-41,641
-40,766
-39,893
-39,024
-38,161
-37,303
-36,452
-35,606
-34,767
-33,931
-33,099
-32,269
-31,438
-30,605
-29,767
-28,923
-28,07
-27,205
-26,328
-25,437
-24,529
-23,603
-22,657
-21,686
-20,688
-19,66
-18,599
-17,501
-16,364
-15,182
-13,954
-12,676
-11,345
-9,956
-8,503
-6,975
-5,366
-3,675
-1,903
-0,055
1,862
3,839
5,86
7,906
9,958
12,001
14,026
16,029
18,008
19,951
21,845
23,672
25,418
27,083
28,675
30,205
31,694
33,169
34,675
36,269
38,005
39,919
42,029
44,336
46,838
49,544
52,47
55,636
59,056
62,726
66,63
70,747
75,044
79,465
83,93
88,336
92,578
96,582
100,303
103,71
106,776
109,456
111,677
113,358
114,42
114,799
114,461
113,369
111,477
108,766
105,242
100,94
95,939
90,263
83,839
76,682
68,918
60,807
52,841
45,509
39,152
34,174
31,079
30,104
31,193
33,875
37,034
39,566
40,758
39,918
36,417
30,209
21,937
13,056
6,155
4,002
9,015
23,744
50,634
91,425
145,244
208,702
277,977
348,261
419,145
494,285
570,894
644,268
703,958
730,218
714,618
655,267
554,532
430,932
300,212
177,617
83,876
25,828
3,838
10,718
26,979
40,768
46,827
45,292
44,262
46,395
50,108
53,61
53,063
47,72
39,649
30,21
21,077
13,907
9,146
7,006
7,576
10,28
14,457
19,645
25,272
30,744
35,755
40,127
43,774
46,84
49,451
51,684
53,664
55,483
57,192
58,846
60,462
62,022
63,504
64,878
66,1
67,159
68,054
68,776
69,313
69,639
69,723
69,54
69,079
68,34
67,323
66,031
64,479
62,709
60,788
58,816
56,887
55,069
53,41
51,951
50,734
49,8
49,187
48,912
48,979
49,388
50,143
51,247
52,688
54,438
56,444
58,64
60,968
63,387
65,867
68,388
70,931
73,48
76,029
78,582
81,149
83,735
86,343
88,968
91,615
94,293
97,02
99,814
102,69
105,653
108,705
111,842
115,062
118,355
121,709
125,106
128,528
131,959
135,388
138,805
142,196
145,549
148,85
152,085
155,244
158,317
161,292
164,162
166,917
169,551
172,059
174,436
176,678
178,783
180,745
182,562
184,231
185,751
187,122
188,343
189,416
190,343
191,127
191,772
192,285
192,67
192,933
193,082
193,123
193,065
192,914
192,678
192,366
191,984
191,542
191,048
190,508
189,932
189,327
188,701
188,062
187,417
186,775
186,141
185,523
184,928
184,362
183,832
183,342
182,899
182,507
182,171
181,893
181,679
181,529
181,446
181,433
181,489
181,617
181,816
182,087
182,43
182,844
183,33
183,885
184,51
185,203
185,962
186,786
187,673
188,62
189,625
190,686
191,799
192,961
194,17
195,422
196,712
198,038
199,394
200,777
202,183
203,607
205,044
206,491
207,942
209,394
210,842
212,281
213,708
215,118
216,506
217,868
219,201
220,5
221,761
222,979
224,152
225,275
226,346
227,361
228,318
229,213
230,044
230,808
231,504
232,129
232,682
233,161
233,565
233,893
234,145
234,32
234,42
234,445
234,397
234,276
234,084
233,825
233,5
233,112
232,664
232,159
231,601
230,994
230,341
229,646
228,912
228,145
227,348
226,524
225,676
224,808
223,923
223,025
222,117
221,202
220,284
219,366
218,454
217,552
216,663
215,792
214,941
214,114
213,313
212,54
211,795
211,078
210,388
209,728
209,096
208,492
207,916
207,368
206,847
206,354
205,888
205,446
205,025
204,623
204,238
203,871
203,524
203,197
202,885
202,584
202,286
201,982
201,659
201,296
200,869
200,357
199,74
199,002
198,133
197,118
195,945
194,614
193,115
191,454
189,646
187,703
185,649
183,524
181,37
179,239
177,203
175,311
173,617
172,174
171,02
170,201
169,748
169,665
169,952
170,6
171,57
172,832
174,331
175,976
177,684
179,355
180,868
182,132
183,048
183,497
183,372
182,548
180,916
178,417
175,015
170,706
165,505
159,41
152,463
144,756
136,368
127,427
118,007
108,1
97,846
87,531
77,532
68,394
60,618
54,606
50,895
49,913
51,662
55,799
61,531
67,864
73,717
77,612
78,335
75,237
69,441
64,239
61,595
62,308
65,499
68,322
73,877
88,356
117,874
170,81
246,866
340,781
447,396
552,992
644,378
708,872
730,645
704,748
633,83
524,646
392,385
251,025
113,785
-2,853
-87,233
-134,055
-145,618
-135,128
-117,689
-102,395
-92,844
-85,899
-76,641
-65,096
-53,267
-43,778
-39,483
-40,176
-44,094
-49,794
-55,321
-59,144
-60,844
-60,368
-58,056
-54,628
-50,714
-46,822
-43,562
-41,536
-41,07
-42,276
-45,089
-49,276
-54,617
-60,95
-68,09
-75,816
-83,926
-92,203
-100,429
-108,477
-116,254
-123,667
-130,654
-137,143
-143,048
-148,339
-153,015
-157,08
-160,558
-163,473
-165,841
-167,717
-169,184
-170,339
-171,296
-172,134
-172,899
-173,63
-174,357
-175,109
-175,918
-176,792
-177,721
-178,699
-179,722
-180,787
-181,896
-183,037
-184,179
-185,292
-186,341
-187,302
-188,163
-188,912
-189,54
-190,042
-190,414
-190,659
-190,789
-190,808
-190,72
-190,526
-190,227
-189,827
-189,336
-188,761
-188,109
-187,39
-186,61
-185,777
-184,9
-183,986
-183,041
-182,07
-181,079
-180,075
-179,064
-178,056
-177,058
-176,08
-175,13
-174,216
-173,349
-172,536
-171,785
-171,103
-170,496
-169,971
-169,531
-169,183
-168,928
-168,77
-168,71
-168,752
-168,894
-169,137
-169,481
-169,923
-170,463
-171,097
-171,823
-172,636
-173,532
-174,507
-175,556
-176,674
-177,856
-179,096
-180,388
-181,726
-183,104
-184,516
-185,956
-187,417
-188,893
-190,379
-191,869
-193,358
-194,841
-196,316
-197,777
-199,223
-200,651
-202,059
-203,446
-204,811
-206,154
-207,475
-208,775
-210,053
-211,312
-212,552
-213,774
-214,981
-216,174
-217,353
-218,521
-219,678
-220,827
-221,967
-223,099
-224,225
-225,344
-226,457
-227,563
-228,662
-229,752
-230,834
-231,904
-232,962
-234,005
-235,031
-236,036
-237,017
-237,969
-238,89
-239,773
-240,615
-241,411
-242,154
-242,842
-243,467
-244,026
-244,513
-244,924
-245,255
-245,501
-245,659
-245,726
-245,698
-245,574
-245,353
-245,034
-244,617
-244,102
-243,491
-242,785
-241,986
-241,097
-240,122
-239,064
-237,926
-236,713
-235,431
-234,084
-232,678
-231,22
-229,715
-228,17
-226,592
-224,987
-223,362
-221,724
-220,078
-218,43
-216,788
-215,155
-213,539
-211,943
-210,372
-208,831
-207,321
-205,846
-204,405
-202,999
-201,626
-200,284
-198,972
-197,686
-196,423
-195,18
-193,953
-192,741
-191,538
-190,34
-189,143
-187,941
-186,727
-185,495
-184,239
-182,95
-181,622
-180,248
-178,821
-177,338
-175,794
-174,186
-172,506
-170,749
-168,91
-166,991
-164,993
-162,922
-160,785
-158,591
-156,356
-154,1
-151,843
-149,604
-147,399
-145,241
-143,14
-141,109
-139,155
-137,289
-135,51
-133,806
-132,161
-130,555
-128,967
-127,377
-125,753
-124,054
-122,246
-120,301
-118,196
-115,914
-113,432
-110,736
-107,819
-104,683
-101,353
-97,872
-94,29
-90,667
-87,06
-83,518
-80,102
-76,887
-73,928
-71,276
-68,979
-67,093
-65,706
-64,898
-64,735
-65,255
-66,443
-68,276
-70,745
-73,827
-77,516
-81,826
-86,708
-92,154
-98,261
-104,98
-112,142
-119,433
-126,225
-131,934
-136,217
-138,611
-138,624
-136,288
-131,906
-126,257
-120,984
-117,373
-116,165
-118,396
-124,726
-134,659
-147,164
-160,102
-169,702
-172,889
-167,343
-149,773
-117,563
-70,165
-7,783
66,324
145,097
224,159
300,196
369,69
432,834
485,344
518,852
526,235
497,849
430,141
328,838
204,056
74,183
-40,856
-128,15
-180,762
-202,497
-206,338
-202,935
-199,049
-195,999
-188,723
-174,885
-156,313
-136,485
-120,222
-109,838
-104,73
-103,642
-105,074
-107,68
-110,332
-111,843
-111,454
-109,1
-105,131
-100,103
-94,515
-88,78
-83,375
-78,796
-75,319
-72,965
-71,593
-70,96
-70,858
-71,155
-71,694
-72,299
-72,827
-73,147
-73,157
-72,819
-72,1
-70,967
-69,413
-67,431
-65,027
-62,241
-59,119
-55,707
-52,049
-48,187
-44,153
-39,997
-35,769
-31,523
-27,311
-23,172
-19,13
-15,207
-11,414
-7,761
-4,25
-0,873
2,387
5,54
8,597
11,565
14,452
17,267
20,025
22,739
25,422
28,086
30,742
33,399
36,07
38,764
41,489
44,253
47,06
49,919
52,838
55,826
58,89
62,038
65,279
68,62
72,068
75,63
79,31
83,112
87,041
91,097
95,282
99,595
104,036
108,6
113,283
118,079
122,982
127,983
133,072
138,239
143,472
148,758
154,084
159,435
164,796
170,152
175,486
180,783
186,026
191,199
196,286
201,27
206,137
210,87
215,453
219,873
224,114
228,162
232,004
235,627
239,02
242,172
245,074
247,718
250,099
252,21
254,05
255,616
256,908
257,927
258,676
259,159
259,382
259,352
259,079
258,572
257,842
256,902
255,765
254,446
252,958
251,319
249,543
247,647
245,647
243,561
241,406
239,2
236,959
234,702
232,446
230,207
228,003
225,848
223,758
221,747
219,827
218,01
216,307
214,727
213,279
211,968
210,801
209,782
208,914
208,197
207,631
207,214
206,943
206,812
206,817
206,949
207,2
207,562
208,024
208,575
209,205
209,9
210,648
211,436
212,251
213,078
213,905
214,717
215,502
216,246
216,937
217,564
218,116
218,582
218,954
219,221
219,376
219,411
219,321
219,1
218,744
218,251
217,619
216,849
215,943
214,903
213,736
212,447
211,043
209,534
207,929
206,237
204,471
202,642
200,76
198,838
196,89
194,929
192,971
191,03
189,121
187,257
185,454
183,725
182,083
180,54
179,106
177,792
176,608
175,567
174,685
173,974
173,439
173,083
172,906
172,902
173,06
173,364
173,789
174,31
174,904
175,552
176,241
176,959
177,688
178,406
179,085
179,705
180,255
180,733
181,144
181,503
181,836
182,183
182,608
183,173
183,931
184,915
186,14
187,616
189,355
191,379
193,708
196,351
199,301
202,531
206,007
209,676
213,469
217,288
220,999
224,461
227,55
230,175
232,269
233,774
234,622
234,701
233,908
232,155
229,379
225,57
220,712
214,779
207,772
199,737
190,761
180,996
170,508
159,217
147,15
134,467
121,502
108,879
97,175
86,826
78,428
72,666
69,827
69,765
71,766
74,406
76,175
75,689
71,42
62,064
48,464
33,377
19,729
10,703
6,037
3,123
3,963
13,951
41,998
98,572
185,997
299,108
429,559
565,046
692,257
798,863
870,464
894,476
867,882
793,481
678,81
537,529
382,405
229,34
100,424
12,368
-27,905
-26,166
-2,954
20,62
33,13
32,401
25,199
19,052
15,44
12,735
7,908
-1,527
-14,634
-29,133
-42,951
-53,866
-60,878
-63,994
-63,347
-59,532
-53,373
-45,573
-36,936
-28,336
-20,322
-13,18
-7,069
-1,974
2,111
5,111
6,98
7,728
7,365
5,922
3,455
-0,005
-4,39
-9,576
-15,425
-21,777
-28,467
-35,376
-42,409
-49,454
-56,401
-63,116
-69,442
-75,27
-80,537
-85,198
-89,243
-92,663
-95,456
-97,651
-99,306
-100,48
-101,243
-101,642
-101,708
-101,487
-101,038
-100,431
-99,757
-99,079
-98,429
-97,839
-97,332
-96,928
-96,654
-96,513
-96,482
-96,539
-96,661
-96,828
-97,033
-97,252
-97,451
-97,596
-97,656
-97,622
-97,507
-97,316
-97,047
-96,692
-96,229
-95,658
-95,001
-94,28
-93,516
-92,734
-91,953
-91,219
-90,601
-90,146
-89,876
-89,778
-89,804
-89,921
-90,117
-90,38
-90,714
-91,096
-91,486
-91,856
-92,186
-92,446
-92,6
-92,578
-92,266
-91,595
-90,54
-89,127
-87,435
-85,523
-83,438
-81,236
-78,978
-76,747
-74,632
-72,695
-70,978
-69,531
-68,418
-67,738
-67,632
-68,196
-69,471
-71,453
-74,08
-77,303
-81,077
-85,338
-90,007
-94,982
-100,173
-105,523
-111,002
-116,583
-122,23
-127,872
-133,413
-138,787
-143,961
-148,943
-153,779
-158,506
-163,152
-167,751
-172,35
-177,008
-181,771
-186,647
-191,61
-196,607
-201,586
-206,526
-211,416
-216,233
-220,936
-225,453
-229,677
-233,525
-236,937
-239,855
-242,23
-243,996
-245,095
-245,514
-245,281
-244,469
-243,163
-241,426
-239,309
-236,884
-234,233
-231,473
-228,75
-226,179
-223,845
-221,834
-220,221
-219,094
-218,551
-218,646
-219,383
-220,733
-222,648
-225,083
-228,009
-231,372
-235,097
-239,095
-243,252
-247,488
-251,748
-255,974
-260,117
-264,123
-267,925
-271,482
-274,79
-277,862
-280,725
-283,425
-285,992
-288,473
-290,936
-293,444
-296,063
-298,835
-301,772
-304,873
-308,126
-311,503
-314,972
-318,505
-322,055
-325,562
-328,966
-332,168
-335,07
-337,574
-339,566
-340,928
-341,566
-341,398
-340,366
-338,461
-335,698
-332,119
-327,8
-322,794
-317,152
-310,943
-304,241
-297,153
-289,82
-282,372
-274,96
-267,757
-260,921
-254,606
-248,965
-244,09
-240,034
-236,836
-234,491
-233,025
-232,51
-233,001
-234,551
-237,176
-240,831
-245,472
-251,08
-257,607
-264,993
-273,153
-281,918
-291,204
-301,069
-311,49
-322,34
-333,309
-343,833
-353,427
-361,841
-368,723
-373,551
-376,055
-376,275
-374,77
-372,724
-370,988
-370,071
-370,85
-374,306
-380,979
-389,347
-395,67
-396,41
-389,821
-378,87
-368,66
-358,73
-343,826
-313,996
-257,878
-174,199
-69,676
46,206
160,357
261,694
342,229
390,775
396,191
355,158
267,998
141,775
-5,197
-157,297
-297,371
-405,752
-476,751
-510,319
-513,685
-504,615
-492,404
-479,878
-466,509
-446,147
-418,368
-387,768
-358,55
-335,296
-319,671
-310,969
-308,833
-312,097
-318,913
-327,267
-335,124
-341,363
-345,755
-348,106
-347,974
-345,296
-340,518
-334,611
-328,85
-323,928
-319,961
-317,017
-315,217
-314,616
-315,159
-316,502
-318,036
-319,371
-320,348
-320,896
-321,029
-320,728
-319,937
-318,677
-317,044
-315,114
-312,944
-310,555
-307,931
-305,078
-302,031
-298,835
-295,549
-292,222
-288,894
-285,591
-282,33
-279,124
-275,983
-272,912
-269,907
-266,96
-264,057
-261,192
-258,364
-255,571
-252,808
-250,065
-247,325
-244,576
-241,811
-239,023
-236,207
-233,359
-230,476
-227,556
-224,601
-221,612
-218,593
-215,544
-212,467
-209,363
-206,232
-203,078
-199,905
-196,716
-193,515
-190,307
-187,096
-183,891
-180,696
-177,519
-174,367
-171,246
-168,164
-165,129
-162,147
-159,226
-156,375
-153,599
-150,908
-148,307
-145,805
-143,406
-141,116
-138,942
-136,886
-134,952
-133,142
-131,457
-129,898
-128,464
-127,154
-125,966
-124,895
-123,94
-123,094
-122,353
-121,709
-121,156
-120,686
-120,29
-119,959
-119,683
-119,454
-119,26
-119,092
-118,94
-118,794
-118,644
-118,481
-118,294
-118,074
-117,811
-117,497
-117,123
-116,681
-116,164
-115,565
-114,88
-114,104
-113,233
-112,265
-111,197
-110,028
-108,757
-107,384
-105,911
-104,339
-102,671
-100,909
-99,059
-97,125
-95,111
-93,023
-90,867
-88,648
-86,371
-84,04
-81,659
-79,232
-76,765
-74,26
-71,721
-69,153
-66,56
-63,946
-61,314
-58,669
-56,012
-53,346
-50,669
-47,981
-45,28
-42,564
-39,827
-37,068
-34,28
-31,458
-28,6
-25,701
-22,757
-19,759
-16,697
-13,564
-10,355
-7,069
-3,706
-0,269
3,236
6,8
10,403
14,028
17,66
21,282
24,894
28,496
32,084
35,656
39,21
42,746
46,28
49,83
53,41
57,038
60,73
64,509
68,421
72,507
76,795
81,309
86,043
90,975
96,087
101,351
106,726
112,162
117,586
122,914
128,089
133,062
137,784
142,205
146,246
149,834
152,919
155,465
157,47
158,956
159,943
160,465
160,583
160,367
159,907
159,288
158,55
157,699
156,745
155,709
154,622
153,503
152,325
151,045
149,6
147,934
145,965
143,529
140,515
136,925
132,873
128,68
124,732
121,323
118,835
117,796
118,448
120,663
123,931
127,068
128,858
128,501
125,108
117,779
106,323
91,438
74,766
59,243
48,272
44,832
52,114
73,637
110,554
161,158
223,329
293,225
370,329
458,806
556,688
657,011
744,896
798,404
807,132
770,884
698,878
607,975
505,915
397,29
288,829
188,601
110,961
66,26
53,142
61,011
76,331
90,004
100,564
112,632
128,682
147,126
164,977
178,25
185,458
187,84
186,872
184,128
181,291
179,663
179,972
182,526
187,043
192,833
199,327
206,061
212,469
218,021
222,431
225,585
227,581
228,674
229,047
228,845
228,232
227,362
226,378
225,409
224,554
223,887
223,476
223,371
223,609
224,209
225,174
226,49
228,132
230,062
232,247
234,651
237,242
239,99
242,855
245,792
248,752
251,689
254,57
257,372
260,077
262,675
265,162
267,54
269,819
272,013
274,131
276,18
278,166
280,092
281,965
283,796
285,59
287,357
289,102
290,83
292,547
294,256
295,958
297,656
299,349
301,035
302,714
304,389
306,061
307,732
309,402
311,074
312,75
314,43
316,115
317,806
319,502
321,203
322,905
324,609
326,312
328,012
329,704
331,387
333,055
334,705
336,332
337,931
339,496
341,022
342,502
343,931
345,302
346,609
347,846
349,008
350,087
351,078
351,977
352,776
353,473
354,061
354,536
354,894
355,131
355,244
355,231
355,088
354,813
354,407
353,868
353,195
352,39
351,453
350,386
349,191
347,871
346,43
344,869
343,195
341,412
339,524
337,537
335,456
333,289
331,04
328,718
326,33
323,882
321,382
318,839
316,259
313,651
311,022
308,38
305,732
303,085
300,446
297,821
295,218
292,642
290,099
287,594
285,133
282,719
280,356
278,049
275,799
273,61
271,484
269,423
267,428
265,503
263,65
261,869
260,164
258,533
256,98
255,501
254,097
252,766
251,504
250,307
249,173
248,099
247,081
246,117
245,205
244,343
243,528
242,76
242,035
241,353
240,709
240,099
239,521
238,974
238,459
237,975
237,517
237,078
236,65
236,223
235,786
235,322
234,81
234,23
233,563
232,795
231,917
230,92
229,799
228,549
227,165
225,654
224,034
222,329
220,566
218,774
216,983
215,232
213,574
212,052
210,704
209,561
208,648
207,996
207,626
207,552
207,781
208,292
209,051
210,01
211,11
212,297
213,522
214,714
215,802
216,721
217,412
217,825
217,897
217,534
216,649
215,167
213,033
210,248
206,821
202,752
198,074
192,795
186,918
180,505
173,562
166,014
157,914
149,402
140,77
132,594
125,416
119,621
115,724
114,24
115,256
118,567
123,423
128,361
132,121
133,776
132,256
126,8
117,616
105,677
93,074
83,102
78,98
83,647
100,283
131,787
178,107
236,512
303,883
375,307
449,649
529,776
611,671
687,926
746,612
770,014
751,197
691,461
595,535
476,152
344,825
213,803
100,99
20,188
-22,122
-29,821
-18,642
-3,823
5,798
8,968
11,66
17,288
25,179
32,966
36,584
34,748
29,074
21,335
13,673
8,008
5,018
4,937
7,799
13,004
19,799
27,527
35,407
42,678
48,933
53,956
57,623
60
61,128
61,025
59,804
57,599
54,515
50,644
46,075
40,885
35,202
29,187
22,965
16,635
10,275
3,959
-2,22
-8,14
-13,696
-18,825
-23,488
-27,667
-31,353
-34,54
-37,242
-39,498
-41,362
-42,894
-44,139
-45,122
-45,87
-46,417
-46,813
-47,124
-47,405
-47,684
-47,986
-48,324
-48,71
-49,155
-49,659
-50,204
-50,77
-51,34
-51,904
-52,458
-52,995
-53,502
-53,959
-54,343
-54,635
-54,83
-54,919
-54,898
-54,766
-54,521
-54,167
-53,718
-53,184
-52,572
-51,888
-51,139
-50,33
-49,471
-48,573
-47,647
-46,701
-45,746
-44,791
-43,846
-42,921
-42,025
-41,165
-40,349
-39,583
-38,877
-38,239
-37,678
-37,202
-36,818
-36,536
-36,362
-36,303
-36,366
-36,555
-36,875
-37,331
-37,924
-38,659
-39,538
-40,561
-41,729
-43,043
-44,502
-46,102
-47,843
-49,719
-51,727
-53,863
-56,12
-58,491
-60,971
-63,552
-66,224
-68,981
-71,812
-74,709
-77,662
-80,662
-83,7
-86,765
-89,849
-92,942
-96,035
-99,119
-102,186
-105,226
-108,231
-111,194
-114,105
-116,957
-119,743
-122,457
-125,092
-127,643
-130,104
-132,472
-134,743
-136,915
-138,984
-140,951
-142,813
-144,572
-146,226
-147,779
-149,231
-150,586
-151,846
-153,015
-154,095
-155,091
-156,004
-156,837
-157,592
-158,272
-158,879
-159,416
-159,885
-160,291
-160,637
-160,928
-161,169
-161,363
-161,515
-161,626
-161,7
-161,738
-161,74
-161,708
-161,641
-161,54
-161,404
-161,236
-161,036
-160,806
-160,545
-160,248
-159,914
-159,546
-159,149
-158,729
-158,296
-157,858
-157,428
-157,028
-156,675
-156,389
-156,183
-156,061
-156,026
-156,082
-156,234
-156,49
-156,847
-157,288
-157,788
-158,324
-158,872
-159,41
-159,914
-160,337
-160,638
-160,791
-160,775
-160,592
-160,251
-159,745
-159,062
-158,204
-157,183
-156,042
-154,847
-153,645
-152,476
-151,383
-150,401
-149,595
-149,033
-148,747
-148,761
-149,076
-149,695
-150,664
-152,059
-153,927
-156,29
-159,122
-162,36
-165,995
-170,033
-174,477
-179,357
-184,637
-190,303
-196,455
-203,105
-210,167
-217,434
-224,414
-230,536
-235,408
-238,544
-239,415
-237,992
-234,52
-229,652
-224,848
-221,419
-220,303
-222,769
-229,778
-241,088
-255,728
-271,585
-285,036
-293,015
-292,784
-280,596
-253,366
-209,744
-150,787
-80,776
-5,469
70,857
147,493
223,839
295,466
355,296
391,419
391,733
353,15
276,828
168,532
42,501
-87,696
-206,233
-294,029
-343,365
-355,685
-340,749
-317,258
-297,475
-285,467
-280,199
-275,842
-270,062
-264,365
-261,013
-262,626
-269,124
-278,503
-288,704
-297,472
-303,719
-307,33
-308,262
-306,908
-303,846
-299,585
-294,842
-290,381
-286,577
-283,55
-281,28
-279,559
-278,236
-277,223
-276,372
-275,54
-274,628
-273,557
-272,308
-270,904
-269,346
-267,623
-265,697
-263,527
-261,121
-258,52
-255,797
-253,025
-250,262
-247,562
-244,981
-242,572
-240,376
-238,419
-236,688
-235,153
-233,78
-232,535
-231,408
-230,392
-229,462
-228,582
-227,708
-226,801
-225,829
-224,746
-223,489
-222,002
-220,244
-218,2
-215,889
-213,338
-210,575
-207,629
-204,516
-201,253
-197,854
-194,325
-190,656
-186,829
-182,839
-178,707
-174,482
-170,215
-165,935
-161,658
-157,384
-153,115
-148,854
-144,6
-140,348
-136,092
-131,835
-127,596
-123,414
-119,334
-115,381
-111,56
-107,851
-104,236
-100,712
-97,277
-93,933
-90,678
-87,507
-84,428
-81,455
-78,606
-75,89
-73,304
-70,837
-68,473
-66,209
-64,05
-62,011
-60,102
-58,33
-56,701
-55,221
-53,899
-52,744
-51,753
-50,919
-50,235
-49,694
-49,295
-49,036
-48,917
-48,932
-49,074
-49,336
-49,711
-50,191
-50,769
-51,435
-52,179
-52,991
-53,864
-54,792
-55,769
-56,787
-57,84
-58,92
-60,02
-61,134
-62,255
-63,375
-64,487
-65,583
-66,658
-67,706
-68,721
-69,698
-70,631
-71,514
-72,345
-73,118
-73,831
-74,48
-75,061
-75,574
-76,015
-76,383
-76,68
-76,903
-77,054
-77,134
-77,146
-77,09
-76,97
-76,787
-76,545
-76,247
-75,896
-75,494
-75,044
-74,549
-74,011
-73,435
-72,822
-72,177
-71,503
-70,802
-70,078
-69,334
-68,573
-67,796
-67,004
-66,197
-65,376
-64,538
-63,685
-62,813
-61,92
-61,003
-60,061
-59,088
-58,08
-57,028
-55,92
-54,746
-53,501
-52,181
-50,787
-49,321
-47,79
-46,203
-44,579
-42,935
-41,285
-39,641
-38,002
-36,371
-34,756
-33,169
-31,625
-30,137
-28,701
-27,308
-25,948
-24,6
-23,236
-21,809
-20,249
-18,488
-16,479
-14,191
-11,615
-8,751
-5,589
-2,125
1,64
5,694
10,004
14,529
19,233
24,071
28,969
33,827
38,498
42,838
46,741
50,128
52,95
55,174
56,758
57,678
57,929
57,521
56,473
54,806
52,51
49,573
46,016
41,892
37,308
32,403
27,266
21,939
16,441
10,768
4,912
-1,112
-7,35
-13,936
-20,888
-28,097
-35,277
-41,88
-47,368
-51,377
-53,52
-53,373
-50,847
-46,183
-40,068
-33,961
-29,359
-27,349
-28,977
-34,995
-45,236
-58,697
-73,479
-86,203
-93,08
-90,801
-75,981
-45,831
0,65
62,924
139,118
225,127
315,27
403,571
483,043
546,339
589,406
611,187
610,649
588,755
544,019
470,687
369,744
248,508
122,33
15,879
-54,702
-85,617
-85,508
-74,636
-66,972
-67,677
-74,872
-80,481
-81,928
-80,97
-79,832
-81,973
-87,752
-95,088
-102,628
-108,831
-112,177
-112,275
-109,012
-102,437
-93,269
-82,3
-70,117
-57,444
-45,028
-33,294
-22,543
-12,983
-4,608
2,52
8,305
12,763
15,93
17,859
18,637
18,328
16,994
14,762
11,784
8,23
4,283
0,073
-4,292
-8,685
-12,983
-17,029
-20,672
-23,817
-26,405
-28,4
-29,794
-30,579
-30,762
-30,385
-29,507
-28,189
-26,498
-24,479
-22,163
-19,603
-16,857
-14,001
-11,12
-8,268
-5,479
-2,78
-0,186
2,289
4,635
6,865
8,999
11,053
13,044
14,977
16,854
18,687
20,492
22,289
24,103
25,947
27,826
29,745
31,707
33,709
35,749
37,815
39,893
41,971
44,04
46,092
48,123
50,123
52,081
53,989
55,837
57,615
59,315
60,93
62,452
63,873
65,189
66,393
67,484
68,458
69,309
70,033
70,627
71,087
71,41
71,594
71,635
71,532
71,285
70,893
70,355
69,674
68,849
67,882
66,775
65,529
64,148
62,634
60,99
59,22
57,328
55,319
53,196
50,965
48,63
46,198
43,674
41,064
38,376
35,616
32,792
29,909
26,977
24,002
20,993
17,956
14,9
11,831
8,759
5,691
2,634
-0,404
-3,416
-6,394
-9,332
-12,222
-15,058
-17,835
-20,545
-23,183
-25,743
-28,221
-30,611
-32,909
-35,112
-37,215
-39,215
-41,112
-42,902
-44,585
-46,161
-47,629
-48,991
-50,248
-51,402
-52,456
-53,413
-54,276
-55,05
-55,74
-56,349
-56,884
-57,351
-57,755
-58,102
-58,399
-58,652
-58,868
-59,052
-59,212
-59,354
-59,485
-59,61
-59,736
-59,869
-60,014
-60,177
-60,362
-60,574
-60,816
-61,092
-61,405
-61,757
-62,15
-62,584
-63,062
-63,582
-64,145
-64,749
-65,394
-66,079
-66,8
-67,556
-68,344
-69,162
-70,006
-70,873
-71,76
-72,663
-73,577
-74,498
-75,422
-76,342
-77,255
-78,155
-79,036
-79,895
-80,726
-81,526
-82,292
-83,02
-83,707
-84,35
-84,944
-85,486
-85,972
-86,398
-86,762
-87,061
-87,291
-87,449
-87,536
-87,55
-87,488
-87,345
-87,116
-86,793
-86,379
-85,874
-85,285
-84,619
-83,887
-83,103
-82,29
-81,468
-80,655
-79,865
-79,103
-78,376
-77,696
-77,076
-76,536
-76,087
-75,726
-75,44
-75,212
-75,015
-74,814
-74,563
-74,192
-73,633
-72,839
-71,769
-70,406
-68,734
-66,721
-64,331
-61,534
-58,307
-54,658
-50,616
-46,211
-41,49
-36,526
-31,404
-26,255
-21,213
-16,378
-11,833
-7,643
-3,872
-0,625
1,972
3,807
4,793
4,879
4,044
2,241
-0,564
-4,368
-9,146
-14,797
-21,23
-28,469
-36,467
-45,063
-53,985
-62,722
-70,719
-77,592
-82,893
-86,044
-86,784
-85,182
-81,662
-77,35
-73,404
-70,587
-69,785
-71,914
-77,214
-85,131
-94,335
-102,274
-106,01
-103,024
-90,519
-65,247
-25,819
26,31
89,02
158,676
233,146
315,606
406,582
500,489
587,708
650,829
672,447
647,014
574,22
460,34
322,75
176,113
38,528
-67,255
-133,037
-158,033
-151,084
-133,648
-117,988
-108,931
-106,471
-102,744
-95,373
-86,696
-78,996
-76,266
-79,591
-87,013
-96,678
-106,377
-114,149
-119,307
-121,646
-121,201
-118,514
-114,252
-109,042
-103,647
-98,817
-94,924
-92,097
-90,326
-89,416
-89,211
-89,602
-90,416
-91,475
-92,645
-93,823
-94,931
-95,902
-96,62
-96,937
-96,727
-95,911
-94,462
-92,392
-89,731
-86,522
-82,821
-78,711
-74,278
-69,6
-64,745
-59,759
-54,7
-49,646
-44,696
-39,969
-35,562
-31,531
-27,913
-24,719
-21,935
-19,544
-17,507
-15,759
-14,255
-12,966
-11,878
-11,003
-10,345
-9,885
-9,591
-9,414
-9,311
-9,25
-9,2
-9,13
-9,034
-8,904
-8,739
-8,547
-8,298
-7,937
-7,411
-6,641
-5,549
-4,072
-2,146
0,281
3,239
6,746
10,805
15,415
20,589
26,344
32,677
39,557
46,912
54,651
62,691
70,934
79,263
87,561
95,691
103,527
110,985
118,004
124,529
130,504
135,863
140,535
144,487
147,731
150,303
152,241
153,572
154,327
154,56
154,348
153,785
152,943
151,861
150,557
149,057
147,401
145,631
143,788
141,873
139,85
137,691
135,387
132,946
130,382
127,7
124,884
121,924
118,846
115,686
112,49
109,289
106,093
102,925
99,821
96,846
94,087
91,609
89,447
87,623
86,149
85,033
84,279
83,868
83,74
83,845
84,141
84,598
85,207
85,942
86,761
87,611
88,433
89,179
89,82
90,329
90,672
90,837
90,826
90,668
90,422
90,138
89,849
89,58
89,351
89,18
89,09
89,087
89,166
89,316
89,534
89,827
90,217
90,712
91,293
91,93
92,578
93,183
93,702
94,083
94,251
94,158
93,786
93,143
92,285
91,272
90,145
88,935
87,666
86,354
85,044
83,775
82,577
81,504
80,622
80,017
79,821
80,13
80,975
82,356
84,215
86,462
89,033
91,851
94,827
97,895
100,982
104,03
107,012
109,874
112,54
114,91
116,839
118,216
118,991
119,144
118,7
117,724
116,272
114,427
112,306
109,992
107,557
105,055
102,502
99,932
97,398
94,97
92,74
90,785
89,147
87,856
86,927
86,343
86,082
86,098
86,314
86,676
87,152
87,722
88,394
89,166
90,022
90,944
91,907
92,884
93,853
94,786
95,648
96,417
97,088
97,665
98,178
98,639
99,049
99,404
99,694
99,915
100,076
100,189
100,266
100,337
100,443
100,637
100,988
101,549
102,351
103,417
104,749
106,352
108,234
110,396
112,835
115,541
118,485
121,629
124,925
128,301
131,664
134,914
137,942
140,661
143,012
144,945
146,437
147,464
148,003
148,034
147,519
146,423
144,724
142,421
139,547
136,16
132,321
128,079
123,483
118,56
113,34
107,82
101,896
95,541
88,852
82,077
75,716
70,312
66,266
64,007
64,063
66,665
71,652
78,39
85,485
91,448
95,212
95,782
92,23
84,307
72,683
59,118
46,825
39,379
39,984
51,895
78,298
121,73
181,806
254,96
336,43
420,2
504,799
593,649
684,466
772,389
845,656
881,716
868,519
801,57
683,884
537,93
384,18
242,044
132,947
60,891
23,901
14,372
14,65
16,48
17,507
17,75
23,406
35,063
48,568
60,771
67,841
68,585
64,726
57,901
49,711
42,04
36,393
33,578
33,939
37,233
42,735
49,78
57,786
66,013
73,787
80,748
86,713
91,72
95,962
99,545
102,534
105,002
106,983
108,484
109,515
110,082
110,209
109,952
109,385
108,577
107,584
106,445
105,196
103,857
102,442
100,976
99,489
98,041
96,722
95,622
94,799
94,29
94,105
94,243
94,702
95,47
96,527
97,856
99,438
101,262
103,327
105,619
108,112
110,764
113,506
116,277
119,036
121,751
124,402
126,978
129,467
131,868
134,192
136,453
138,659
140,817
142,925
144,988
147,018
149,032
151,054
153,104
155,193
157,329
159,518
161,762
164,063
166,416
168,811
171,238
173,691
176,163
178,653
181,154
183,661
186,165
188,659
191,135
193,587
196,009
198,393
200,733
203,022
205,253
207,423
209,526
211,555
213,505
215,37
217,144
218,822
220,401
221,878
223,248
224,508
225,654
226,682
227,588
228,368
229,017
229,529
229,899
230,121
230,193
230,111
229,871
229,467
228,892
228,143
227,222
226,13
224,872
223,455
221,89
220,191
218,376
216,465
214,473
212,413
210,294
208,126
205,914
203,668
201,395
199,099
196,77
194,397
191,96
189,438
186,806
184,034
181,084
177,928
174,543
170,914
167,037
162,913
158,552
153,972
149,184
144,213
139,1
133,897
128,675
123,518
118,5
113,703
109,221
105,131
101,511
98,433
95,947
94,082
92,863
92,295
92,393
93,17
94,606
96,662
99,264
102,318
105,74
109,442
113,313
117,248
121,129
124,83
128,258
131,344
134,018
136,229
137,909
138,981
139,4
139,149
138,244
136,717
134,596
131,907
128,705
125,057
121,05
116,785
112,333
107,741
103,06
98,334
93,62
88,991
84,495
80,155
75,985
71,988
68,171
64,547
61,106
57,821
54,654
51,555
48,496
45,469
42,464
39,471
36,478
33,465
30,426
27,369
24,301
21,227
18,154
15,078
12,014
8,983
6,01
3,123
0,339
-2,332
-4,882
-7,305
-9,597
-11,754
-13,78
-15,686
-17,479
-19,166
-20,752
-22,244
-23,65
-24,982
-26,251
-27,471
-28,655
-29,813
-30,959
-32,105
-33,264
-34,445
-35,657
-36,906
-38,195
-39,529
-40,912
-42,35
-43,854
-45,437
-47,112
-48,892
-50,787
-52,806
-54,948
-57,21
-59,575
-62,027
-64,547
-67,116
-69,722
-72,348
-74,979
-77,593
-80,157
-82,636
-84,996
-87,203
-89,225
-91,047
-92,678
-94,152
-95,541
-96,911
-98,316
-99,822
-101,504
-103,457
-105,792
-108,607
-111,956
-115,939
-120,734
-126,447
-133,087
-140,484
-148,17
-155,694
-162,776
-169,025
-173,877
-177,005
-178,382
-178,454
-178,584
-179,992
-183,127
-188,855
-198,37
-211,92
-229,242
-247,952
-262,446
-269,508
-268,249
-258,92
-244,511
-222,846
-188,453
-136,656
-61,575
35,257
148,719
272,621
392,383
494,352
563,327
581,197
543,366
450,683
309,248
140,723
-35,418
-196,982
-317,086
-387,692
-410,375
-397,178
-373,74
-353,936
-342,424
-338,407
-332,609
-322,534
-311,254
-301,643
-298,193
-301,906
-310,357
-321,346
-332,368
-341,228
-347,126
-349,818
-349,392
-346,5
-341,927
-336,388
-330,695
-325,652
-321,673
-318,912
-317,389
-316,931
-317,405
-318,738
-320,802
-323,463
-326,652
-330,308
-334,376
-338,817
-343,548
-348,457
-353,465
-358,508
-363,543
-368,542
-373,463
-378,26
-382,882
-387,295
-391,469
-395,374
-398,975
-402,25
-405,193
-407,818
-410,156
-412,239
-414,089
-415,726
-417,163
-418,417
-419,508
-420,465
-421,323
-422,107
-422,836
-423,534
-424,223
-424,92
-425,637
-426,372
-427,114
-427,856
-428,589
-429,307
-430,003
-430,668
-431,287
-431,846
-432,326
-432,715
-433,005
-433,187
-433,256
-433,209
-433,045
-432,768
-432,389
-431,914
-431,35
-430,706
-429,99
-429,211
-428,381
-427,512
-426,615
-425,704
-424,788
-423,881
-422,993
-422,134
-421,316
-420,547
-419,838
-419,197
-418,635
-418,163
-417,789
-417,525
-417,38
-417,362
-417,48
-417,74
-418,15
-418,715
-419,439
-420,325
-421,377
-422,596
-423,983
-425,538
-427,26
-429,148
-431,199
-433,408
-435,771
-438,284
-440,94
-443,733
-446,655
-449,699
-452,857
-456,119
-459,476
-462,918
-466,434
-470,013
-473,643
-477,313
-481,008
-484,717
-488,427
-492,124
-495,796
-499,429
-503,01
-506,528
-509,969
-513,321
-516,573
-519,714
-522,731
-525,615
-528,356
-530,944
-533,37
-535,625
-537,702
-539,592
-541,289
-542,786
-544,077
-545,158
-546,024
-546,671
-547,097
-547,299
-547,276
-547,028
-546,556
-545,86
-544,945
-543,814
-542,471
-540,922
-539,173
-537,232
-535,106
-532,804
-530,334
-527,706
-524,929
-522,013
-518,969
-515,808
-512,539
-509,176
-505,728
-502,208
-498,626
-494,996
-491,327
-487,633
-483,922
-480,208
-476,5
-472,809
-469,145
-465,516
-461,933
-458,403
-454,933
-451,53
-448,199
-444,943
-441,764
-438,665
-435,644
-432,701
-429,835
-427,044
-424,325
-421,675
-419,091
-416,571
-414,11
-411,703
-409,345
-407,03
-404,75
-402,496
-400,261
-398,036
-395,812
-393,58
-391,33
-389,058
-386,757
-384,421
-382,042
-379,61
-377,119
-374,567
-371,954
-369,283
-366,558
-363,785
-360,973
-358,143
-355,311
-352,494
-349,706
-346,952
-344,236
-341,563
-338,939
-336,369
-333,848
-331,357
-328,875
-326,383
-323,869
-321,317
-318,702
-315,982
-313,121
-310,093
-306,874
-303,454
-299,819
-295,955
-291,853
-287,521
-282,99
-278,31
-273,54
-268,722
-263,884
-259,06
-254,298
-249,664
-245,213
-240,988
-237,035
-233,417
-230,219
-227,525
-225,394
-223,836
-222,834
-222,38
-222,456
-223,068
-224,253
-225,996
-228,306
-231,275
-234,871
-238,948
-243,254
-247,249
-250,361
-252,219
-252,313
-250,072
-245,478
-238,826
-230,823
-222,976
-216,518
-212,199
-211,157
-214,306
-221,321
-231,111
-241,595
-249,306
-251,188
-244,663
-226,234
-192,558
-143,453
-81,483
-9,957
65,985
145,619
233,001
325,585
416,656
493,679
536,777
535,552
489,109
402,826
291,868
170,524
51,924
-48,807
-122,001
-163,049
-174,81
-169,597
-158,672
-148,8
-141,622
-132,395
-118,627
-102,047
-85,403
-72,602
-65,372
-62,535
-62,459
-63,503
-64,051
-62,913
-59,471
-53,441
-45,036
-34,906
-23,705
-12,023
-0,518
10,209
19,834
28,2
35,334
41,414
46,576
50,941
54,666
57,908
60,799
63,447
65,946
68,373
70,83
73,429
76,25
79,345
82,74
86,44
90,442
94,735
99,298
104,094
109,089
114,251
119,546
124,943
130,404
135,888
141,353
146,76
152,086
157,317
162,452
167,495
172,458
177,356
182,21
187,042
191,873
196,719
201,597
206,521
211,506
216,569
221,726
226,989
232,371
237,879
243,521
249,301
255,22
261,277
267,47
273,795
280,247
286,821
293,513
300,315
307,221
314,222
321,308
328,467
335,689
342,959
350,263
357,585
364,909
372,22
379,5
386,731
393,895
400,975
407,953
414,81
421,528
428,091
434,479
440,678
446,672
452,446
457,987
463,283
468,322
473,095
477,595
481,815
485,748
489,393
492,746
495,806
498,575
501,054
503,246
505,157
506,79
508,154
509,255
510,102
510,705
511,073
511,217
511,148
510,879
510,421
509,786
508,989
508,042
506,959
505,753
504,438
503,027
501,533
499,968
498,346
496,676
494,971
493,241
491,494
489,741
487,989
486,245
484,516
482,808
481,124
479,47
477,849
476,265
474,72
473,215
471,754
470,339
468,971
467,651
466,381
465,162
463,995
462,882
461,823
460,819
459,869
458,974
458,133
457,346
456,613
455,932
455,303
454,724
454,194
453,713
453,279
452,89
452,546
452,246
451,988
451,773
451,599
451,465
451,371
451,315
451,298
451,318
451,372
451,459
451,576
451,721
451,89
452,079
452,283
452,498
452,721
452,944
453,162
453,37
453,563
453,734
453,882
454,002
454,091
454,145
454,163
454,143
454,084
453,984
453,839
453,646
453,4
453,104
452,761
452,375
451,948
451,483
450,982
450,455
449,91
449,347
448,768
448,172
447,557
446,936
446,323
445,737
445,192
444,687
444,219
443,79
443,399
443,036
442,689
442,327
441,924
441,484
441,016
440,536
440,059
439,575
439,073
438,542
437,983
437,414
436,86
436,337
435,874
435,525
435,356
435,465
435,926
436,761
437,971
439,545
441,466
443,743
446,38
449,374
452,711
456,358
460,279
464,442
468,783
473,207
477,587
481,76
485,602
489,052
492,07
494,639
496,744
498,347
499,405
499,885
499,738
498,934
497,453
495,265
492,365
488,768
484,513
479,681
474,333
468,459
461,964
454,8
447,037
438,891
430,765
423,071
416,115
410,244
405,933
403,45
402,682
403,087
403,486
402,654
399,828
394,334
385,49
373,141
357,906
341,361
326,281
315,639
311,969
317,791
335,66
367,786
413,795
470,538
534,276
600,214
667,761
740,728
816,738
891,05
953,304
983,786
973,067
917,79
819,355
695,657
562,966
437,917
341,155
278,487
249,13
245,706
250,659
254,734
254,795
251,191
250,503
254,101
259,393
264,14
264,69
259,973
251,576
240,86
229,513
219,368
211,164
205,134
201,375
199,408
198,611
198,531
198,558
197,992
196,483
193,882
190,147
185,472
180,023
173,894
167,262
160,305
153,152
145,944
138,785
131,753
124,961
118,507
112,455
106,861
101,745
97,108
92,951
89,254
85,986
83,121
80,622
78,458
76,598
74,999
73,614
72,393
71,28
70,236
69,232
68,242
67,254
66,26
65,258
64,252
63,251
62,259
61,278
60,308
59,346
58,395
57,457
56,534
55,63
54,745
53,88
53,034
52,206
51,393
50,59
49,792
48,994
48,191
47,38
46,558
45,724
44,877
44,014
43,135
42,238
41,322
40,384
39,422
38,433
37,413
36,36
35,269
34,139
32,965
31,745
30,474
29,151
27,772
26,334
24,834
23,269
21,635
19,929
18,149
16,292
14,356
12,338
10,238
8,053
5,782
3,425
0,979
-1,555
-4,179
-6,893
-9,697
-12,591
-15,575
-18,648
-21,807
-25,051
-28,378
-31,783
-35,265
-38,82
-42,444
-46,134
-49,885
-53,693
-57,554
-61,463
-65,415
-69,405
-73,427
-77,475
-81,544
-85,628
-89,723
-93,821
-97,918
-102,009
-106,088
-110,15
-114,189
-118,199
-122,176
-126,114
-130,009
-133,854
-137,647
-141,382
-145,057
-148,667
-152,21
-155,682
-159,082
-162,405
-165,652
-168,818
-171,903
-174,906
-177,825
-180,659
-183,41
-186,076
-188,659
-191,159
-193,578
-195,915
-198,174
-200,354
-202,459
-204,489
-206,447
-208,336
-210,157
-211,914
-213,608
-215,244
-216,823
-218,349
-219,823
-221,247
-222,625
-223,957
-225,247
-226,494
-227,702
-228,873
-230,007
-231,107
-232,174
-233,21
-234,217
-235,195
-236,146
-237,071
-237,97
-238,846
-239,697
-240,526
-241,332
-242,116
-242,877
-243,617
-244,335
-245,03
-245,703
-246,353
-246,98
-247,583
-248,162
-248,717
-249,248
-249,756
-250,24
-250,7
-251,139
-251,555
-251,949
-252,323
-252,675
-253,007
-253,317
-253,606
-253,872
-254,113
-254,329
-254,518
-254,678
-254,808
-254,908
-254,976
-255,014
-255,02
-254,995
-254,938
-254,849
-254,725
-254,565
-254,369
-254,132
-253,854
-253,53
-253,16
-252,744
-252,28
-251,767
-251,202
-250,579
-249,897
-249,157
-248,363
-247,518
-246,629
-245,709
-244,774
-243,846
-242,944
-242,082
-241,274
-240,528
-239,855
-239,261
-238,748
-238,315
-237,957
-237,655
-237,392
-237,146
-236,881
-236,555
-236,118
-235,51
-234,687
-233,612
-232,251
-230,573
-228,543
-226,143
-223,374
-220,248
-216,789
-213,031
-209,011
-204,768
-200,377
-195,926
-191,515
-187,257
-183,22
-179,426
-175,931
-172,817
-170,179
-168,138
-166,711
-165,785
-165,394
-165,711
-166,896
-169,162
-172,481
-176,465
-180,973
-186,199
-191,952
-197,75
-202,893
-206,149
-206,922
-205,61
-202,234
-196,42
-188,436
-178,921
-169,179
-161,77
-158,307
-158,841
-163,758
-173,462
-187,393
-204,39
-221,984
-235,789
-242,138
-238,648
-222,439
-191,022
-142,933
-79,208
-4,23
76,452
156,991
236,368
317,421
397,198
471,061
528,401
549,754
526,95
457,709
344,608
208,39
67,659
-59,539
-150,945
-201,869
-215,731
-202,393
-182,312
-166,433
-157,967
-155,895
-152,96
-147,082
-140,403
-135,047
-134,215
-138,289
-145,227
-153,456
-161,202
-166,999
-170,476
-171,507
-170,22
-167,239
-163,231
-158,766
-154,476
-150,931
-148,393
-146,974
-146,665
-147,303
-148,747
-150,873
-153,507
-156,485
-159,665
-162,924
-166,142
-169,197
-171,951
-174,279
-176,107
-177,405
-178,181
-178,452
-178,239
-177,574
-176,507
-175,107
-173,437
-171,546
-169,485
-167,316
-165,128
-163,04
-161,157
-159,55
-158,253
-157,272
-156,595
-156,204
-156,066
-156,122
-156,291
-156,504
-156,706
-156,87
-156,971
-156,972
-156,806
-156,395
-155,671
-154,592
-153,132
-151,271
-148,986
-146,272
-143,147
-139,663
-135,899
-131,912
-127,736
-123,394
-118,898
-114,276
-109,569
-104,819
-100,053
-95,299
-90,581
-85,935
-81,41
-77,035
-72,814
-68,731
-64,751
-60,852
-57,033
-53,294
-49,638
-46,068
-42,582
-39,187
-35,905
-32,745
-29,715
-26,812
-24,02
-21,339
-18,777
-16,351
-14,084
-11,993
-10,088
-8,378
-6,873
-5,579
-4,497
-3,62
-2,937
-2,435
-2,108
-1,951
-1,96
-2,128
-2,444
-2,896
-3,47
-4,153
-4,932
-5,789
-6,71
-7,676
-8,676
-9,695
-10,724
-11,751
-12,763
-13,75
-14,699
-15,6
-16,442
-17,214
-17,906
-18,506
-19,007
-19,402
-19,686
-19,852
-19,898
-19,822
-19,621
-19,295
-18,846
-18,275
-17,583
-16,775
-15,853
-14,823
-13,692
-12,466
-11,152
-9,759
-8,296
-6,772
-5,196
-3,577
-1,926
-0,251
1,438
3,13
4,815
6,482
8,121
9,722
11,272
12,761
14,179
15,516
16,764
17,914
18,958
19,891
20,706
21,399
21,966
22,404
22,708
22,876
22,908
22,802
22,56
22,182
21,67
21,028
20,26
19,372
18,37
17,259
16,042
14,726
13,317
11,821
10,244
8,591
6,868
5,083
3,249
1,378
-0,517
-2,426
-4,349
-6,282
-8,218
-10,156
-12,095
-14,034
-15,98
-17,928
-19,865
-21,779
-23,654
-25,486
-27,276
-29,028
-30,747
-32,432
-34,076
-35,674
-37,226
-38,718
-40,13
-41,437
-42,611
-43,642
-44,545
-45,338
-46,044
-46,685
-47,277
-47,837
-48,377
-48,907
-49,435
-49,968
-50,518
-51,11
-51,784
-52,584
-53,561
-54,744
-56,137
-57,732
-59,508
-61,425
-63,436
-65,498
-67,575
-69,641
-71,688
-73,699
-75,656
-77,527
-79,272
-80,845
-82,195
-83,275
-84,049
-84,503
-84,646
-84,51
-84,156
-83,633
-82,98
-82,227
-81,387
-80,479
-79,525
-78,545
-77,558
-76,595
-75,688
-74,878
-74,215
-73,727
-73,422
-73,29
-73,295
-73,417
-73,641
-73,958
-74,363
-74,854
-75,425
-76,077
-76,822
-77,663
-78,603
-79,636
-80,746
-81,928
-83,19
-84,54
-85,994
-87,556
-89,213
-90,956
-92,777
-94,666
-96,62
-98,626
-100,664
-102,716
-104,753
-106,751
-108,692
-110,549
-112,295
-113,909
-115,389
-116,77
-118,116
-119,484
-120,924
-122,45
-124,08
-125,87
-127,871
-130,151
-132,794
-135,829
-139,345
-143,531
-148,433
-153,962
-159,873
-165,607
-170,635
-174,661
-177,26
-177,948
-176,719
-173,861
-170,197
-167,348
-166,615
-168,748
-174,587
-184,681
-198,592
-215,186
-232,181
-245,995
-253,332
-251,404
-237,331
-208,484
-164,661
-108,484
-43,62
24,847
94,647
168,95
248,085
326,971
396,219
438,517
438,097
391,316
300,145
174,139
32,758
-108,702
-233,204
-322,271
-372,453
-384,858
-369,145
-343,104
-314,324
-290,003
-272,144
-257,774
-250,458
-248,012
-248,536
-252,237
-254,887
-257,545
-261,702
-266,122
-271,194
-275,283
-276,783
-276,2
-273,99
-270,869
-267,653
-264,697
-262,319
-260,786
-260,157
-260,312
-261,029
-262,124
-263,451
-264,882
-266,311
-267,621
-268,713
-269,511
-269,955
-269,995
-269,594
-268,732
-267,402
-265,612
-263,379
-260,738
-257,731
-254,398
-250,783
-246,919
-242,84
-238,589
-234,211
-229,754
-225,267
-220,786
-216,336
-211,939
-207,606
-203,346
-199,162
-195,049
-190,995
-186,994
-183,042
-179,135
-175,272
-171,446
-167,65
-163,876
-160,118
-156,369
-152,625
-148,88
-145,128
-141,368
-137,596
-133,811
-130,012
-126,199
-122,368
-118,516
-114,642
-110,744
-106,82
-102,868
-98,888
-94,88
-90,845
-86,785
-82,703
-78,603
-74,488
-70,364
-66,236
-62,11
-57,994
-53,894
-49,816
-45,77
-41,762
-37,802
-33,896
-30,053
-26,28
-22,587
-18,98
-15,468
-12,056
-8,752
-5,562
-2,492
0,455
3,272
5,957
8,506
10,917
13,187
15,316
17,303
19,148
20,854
22,421
23,854
25,156
26,331
27,385
28,323
29,151
29,875
30,502
31,039
31,492
31,868
32,174
32,417
32,604
32,741
32,835
32,892
32,918
32,919
32,901
32,868
32,825
32,777
32,729
32,683
32,645
32,616
32,601
32,602
32,621
32,66
32,72
32,804
32,91
33,041
33,195
33,373
33,575
33,8
34,049
34,32
34,615
34,934
35,276
35,641
36,031
36,446
36,887
37,355
37,85
38,374
38,929
39,515
40,134
40,787
41,476
42,2
42,962
43,761
44,598
45,474
46,388
47,341
48,332
49,362
50,43
51,536
52,678
53,857
55,071
56,318
57,596
58,905
60,24
61,599
62,979
64,376
65,787
67,207
68,632
70,057
71,476
72,886
74,281
75,656
77,006
78,326
79,612
80,859
82,064
83,224
84,336
85,396
86,403
87,356
88,252
89,091
89,872
90,595
91,26
91,868
92,42
92,917
93,361
93,754
94,098
94,397
94,653
94,871
95,054
95,206
95,333
95,437
95,525
95,601
95,671
95,738
95,808
95,885
95,973
96,075
96,196
96,336
96,5
96,688
96,902
97,142
97,409
97,702
98,022
98,368
98,738
99,132
99,546
99,979
100,429
100,893
101,369
101,852
102,341
102,832
103,321
103,806
104,283
104,749
105,2
105,633
106,045
106,434
106,796
107,13
107,433
107,704
107,945
108,153
108,33
108,477
108,596
108,69
108,762
108,814
108,848
108,869
108,879
108,883
108,884
108,886
108,893
108,911
108,945
109,001
109,083
109,196
109,341
109,523
109,745
110,008
110,313
110,659
111,045
111,474
111,949
112,473
113,043
113,649
114,284
114,943
115,619
116,304
116,987
117,654
118,297
118,918
119,516
120,097
120,655
121,179
121,659
122,085
122,452
122,77
123,038
123,249
123,406
123,512
123,578
123,629
123,669
123,688
123,683
123,648
123,59
123,527
123,47
123,428
123,409
123,415
123,452
123,535
123,662
123,826
124,011
124,179
124,298
124,338
124,249
123,984
123,494
122,74
121,682
120,269
118,455
116,183
113,395
110,074
106,166
101,571
96,308
90,489
84,361
78,414
73,128
68,862
66,117
65,374
66,709
70,031
74,741
79,529
83,275
85,032
83,662
78,547
70,04
58,838
46,741
37,006
32,643
36,78
53,228
83,541
126,166
179,461
240,342
306,673
381,796
466,212
554,014
635,326
692,602
708,594
677,907
602,378
490,309
358,485
221,518
92,985
-10,208
-77,693
-105,924
-95,407
-56,396
-4,703
45,991
81,35
92,328
81,102
54,847
25,831
5,368
-3,481
-2,966
0,837
3,182
3,289
2,382
2,883
5,652
9,894
14,715
19,119
22,544
25,035
26,607
27,247
27,129
26,364
25,016
23,21
21,035
18,562
15,901
13,158
10,415
7,775
5,349
3,22
1,449
0,067
-0,931
-1,549
-1,803
-1,715
-1,315
-0,64
0,273
1,387
2,662
4,052
5,507
6,972
8,397
9,744
10,987
12,11
13,11
13,984
14,736
15,377
15,916
16,365
16,732
17,023
17,245
17,41
17,527
17,611
17,674
17,727
17,78
17,845
17,928
18,039
18,183
18,366
18,595
18,875
19,215
19,62
20,1
20,66
21,307
22,047
22,885
23,825
24,869
26,018
27,273
28,631
30,093
31,654
33,31
35,058
36,891
38,803
40,787
42,834
44,936
47,083
49,265
51,471
53,69
55,911
58,122
60,311
62,467
64,578
66,634
68,623
70,534
72,358
74,083
75,7
77,201
78,576
79,817
80,919
81,874
82,677
83,325
83,813
84,139
84,302
84,3
84,133
83,803
83,31
82,657
81,847
80,884
79,772
78,517
77,124
75,6
73,95
72,183
70,305
68,324
66,246
64,081
61,836
59,518
57,137
54,699
52,214
49,689
47,133
44,554
41,959
39,357
36,755
34,16
31,581
29,025
26,498
24,008
21,561
19,164
16,824
14,545
12,334
10,196
8,136
6,158
4,267
2,468
0,762
-0,845
-2,352
-3,755
-5,052
-6,241
-7,32
-8,288
-9,144
-9,887
-10,517
-11,034
-11,439
-11,732
-11,916
-11,992
-11,962
-11,829
-11,597
-11,27
-10,851
-10,345
-9,758
-9,095
-8,362
-7,564
-6,709
-5,802
-4,851
-3,862
-2,843
-1,8
-0,741
0,329
1,402
2,471
3,53
4,574
5,595
6,588
7,549
8,471
9,351
10,183
10,965
11,692
12,363
12,973
13,523
14,009
14,432
14,791
15,086
15,319
15,489
15,599
15,65
15,647
15,591
15,487
15,337
15,145
14,917
14,656
14,366
14,051
13,716
13,365
13,001
12,629
12,253
11,875
11,499
11,129
10,767
10,415
10,075
9,75
9,441
9,148
8,874
8,617
8,38
8,161
7,961
7,779
7,615
7,467
7,334
7,214
7,104
7,003
6,907
6,814
6,72
6,624
6,522
6,412
6,291
6,158
6,009
5,843
5,658
5,452
5,224
4,972
4,696
4,395
4,069
3,718
3,344
2,947
2,53
2,092
1,637
1,165
0,678
0,18
-0,329
-0,843
-1,361
-1,877
-2,388
-2,887
-3,369
-3,829
-4,261
-4,658
-5,014
-5,325
-5,587
-5,794
-5,94
-6,022
-6,036
-5,977
-5,84
-5,62
-5,311
-4,908
-4,408
-3,81
-3,113
-2,317
-1,421
-0,428
0,657
1,831
3,09
4,434
5,867
7,386
8,983
10,646
12,358
14,106
15,876
17,651
19,409
21,133
22,81
24,438
26,028
27,583
29,102
30,574
31,978
33,3
34,541
35,703
36,794
37,817
38,775
39,689
40,6
41,543
42,537
43,579
44,636
45,686
46,722
47,747
48,777
49,819
50,865
51,907
52,945
53,974
54,985
55,943
56,756
57,318
57,549
57,39
56,834
55,892
54,543
52,739
50,438
47,582
44,128
40,085
35,387
29,903
23,633
16,709
9,49
2,627
-3,29
-7,871
-10,661
-11,223
-9,483
-5,64
-0,542
4,202
7,206
7,466
4,033
-3,543
-14,844
-28,825
-43,026
-53,704
-57,599
-51,593
-32,489
1,747
51,858
116,189
189,581
265,943
340,681
412,745
482,537
547,848
602,709
633,705
627,861
578,506
484,218
357,74
217,85
84,621
-19,07
-83,634
-109,729
-106,543
-93,403
-81,737
-75,952
-75,545
-73,067
-66,555
-58,128
-49,848
-45,616
-46,442
-50,508
-56,382
-62,257
-66,266
-67,775
-66,603
-62,74
-56,814
-49,582
-41,625
-33,625
-26,297
-20,011
-14,939
-11,152
-8,499
-6,854
-6,165
-6,325
-7,219
-8,757
-10,829
-13,317
-16,097
-18,999
-21,854
-24,535
-26,953
-29,055
-30,816
-32,22
-33,261
-33,943
-34,269
-34,229
-33,817
-33,039
-31,921
-30,518
-28,906
-27,18
-25,426
-23,711
-22,085
-20,577
-19,2
-17,957
-16,84
-15,834
-14,93
-14,128
-13,429
-12,832
-12,329
-11,904
-11,531
-11,178
-10,811
-10,398
-9,908
-9,32
-8,625
-7,815
-6,89
-5,857
-4,724
-3,504
-2,216
-0,87
0,529
1,982
3,494
5,07
6,709
8,413
10,186
12,029
13,952
15,956
18,039
20,211
22,488
24,9
27,495
30,297
33,31
36,526
39,919
43,458
47,107
50,815
54,514
58,148
61,661
65,01
68,17
71,095
73,732
76,012
77,848
79,177
79,968
80,197
79,857
78,962
77,531
75,615
73,294
70,631
67,677
64,474
61,044
57,424
53,665
49,823
45,965
42,144
38,397
34,756
31,25
27,887
24,669
21,573
18,551
15,57
12,614
9,672
6,748
3,84
0,937
-1,967
-4,88
-7,806
-10,749
-13,71
-16,697
-19,705
-22,726
-25,739
-28,715
-31,631
-34,474
-37,235
-39,91
-42,495
-44,985
-47,38
-49,686
-51,904
-54,037
-56,083
-58,04
-59,91
-61,696
-63,402
-65,036
-66,603
-68,107
-69,551
-70,938
-72,271
-73,55
-74,775
-75,944
-77,055
-78,107
-79,101
-80,036
-80,913
-81,733
-82,495
-83,201
-83,852
-84,449
-84,994
-85,488
-85,933
-86,332
-86,688
-87,005
-87,285
-87,533
-87,753
-87,948
-88,124
-88,285
-88,434
-88,578
-88,719
-88,864
-89,015
-89,179
-89,36
-89,561
-89,789
-90,047
-90,341
-90,674
-91,052
-91,477
-91,955
-92,488
-93,079
-93,731
-94,444
-95,222
-96,063
-96,967
-97,935
-98,963
-100,049
-101,191
-102,385
-103,626
-104,911
-106,234
-107,591
-108,976
-110,385
-111,811
-113,25
-114,696
-116,144
-117,588
-119,024
-120,447
-121,851
-123,232
-124,586
-125,907
-127,192
-128,436
-129,636
-130,788
-131,888
-132,935
-133,925
-134,856
-135,728
-136,539
-137,289
-137,98
-138,611
-139,186
-139,705
-140,173
-140,591
-140,963
-141,293
-141,583
-141,836
-142,057
-142,247
-142,41
-142,549
-142,666
-142,763
-142,843
-142,908
-142,958
-142,997
-143,024
-143,042
-143,052
-143,055
-143,051
-143,041
-143,027
-143,008
-142,985
-142,959
-142,929
-142,893
-142,852
-142,803
-142,744
-142,673
-142,584
-142,475
-142,342
-142,18
-141,987
-141,758
-141,492
-141,186
-140,838
-140,449
-140,016
-139,538
-139,013
-138,439
-137,816
-137,143
-136,417
-135,638
-134,803
-133,912
-132,968
-131,97
-130,916
-129,802
-128,624
-127,379
-126,071
-124,704
-123,282
-121,816
-120,315
-118,798
-117,293
-115,82
-114,395
-113,035
-111,75
-110,555
-109,47
-108,507
-107,675
-106,972
-106,388
-105,912
-105,528
-105,2
-104,88
-104,511
-104,02
-103,352
-102,46
-101,29
-99,795
-97,919
-95,608
-92,835
-89,588
-85,87
-81,698
-77,1
-72,121
-66,851
-61,411
-55,926
-50,538
-45,365
-40,528
-36,178
-32,471
-29,584
-27,677
-26,871
-27,254
-28,877
-31,77
-35,951
-41,407
-48,066
-55,82
-64,515
-73,996
-84,198
-94,933
-105,844
-116,447
-126,014
-133,803
-139,311
-142,143
-141,887
-138,538
-132,446
-124,305
-115,519
-107,599
-101,519
-97,718
-96,263
-96,473
-96,835
-95,256
-88,666
-73,305
-47,113
-10,715
34,92
87,884
147,912
219,212
302,716
393,131
478,899
540,616
561,717
536,695
469,279
370,923
254,968
131,826
12,347
-90,102
-163,641
-201,706
-207,469
-194,356
-175,811
-160,23
-149,265
-137,981
-123,974
-108,343
-93,382
-82,971
-78,386
-78,154
-80,738
-84,147
-86,401
-86,747
-84,904
-80,796
-75,02
-68,262
-61,045
-54,041
-47,932
-43,051
-39,547
-37,448
-36,543
-36,635
-37,554
-39,053
-40,905
-42,937
-45,001
-46,978
-48,773
-50,298
-51,482
-52,285
-52,692
-52,7
-52,306
-51,507
-50,305
-48,722
-46,81
-44,641
-42,281
-39,79
-37,224
-34,64
-32,1
-29,654
-27,323
-25,109
-22,992
-20,955
-18,99
-17,104
-15,301
-13,579
-11,928
-10,327
-8,763
-7,234
-5,743
-4,286
-2,851
-1,427
-0,02
1,338
2,594
3,706
4,653
5,431
6,049
6,507
6,807
6,962
7,001
6,977
6,944
6,943
7,004
7,157
7,444
7,939
8,743
9,94
11,592
13,742
16,416
19,65
23,476
27,896
32,881
38,366
44,288
50,589
57,216
64,111
71,202
78,383
85,521
92,497
99,198
105,53
111,418
116,774
121,515
125,586
128,964
131,654
133,67
135,016
135,704
135,745
135,159
133,995
132,314
130,179
127,656
124,797
121,628
118,186
114,515
110,641
106,576
102,323
97,885
93,276
88,523
83,665
78,757
73,845
68,979
64,207
59,575
55,147
51,016
47,261
43,956
41,175
38,993
37,48
36,695
36,671
37,411
38,883
41,028
43,764
46,998
50,624
54,532
58,591
62,649
66,568
70,222
73,489
76,251
78,397
79,831
80,49
80,342
79,394
77,679
75,259
72,215
68,646
64,661
60,386
55,959
51,499
47,109
42,888
38,931
35,325
32,149
29,459
27,286
25,644
24,53
23,925
23,795
24,09
24,753
25,714
26,9
28,253
29,726
31,278
32,872
34,474
36,053
37,588
39,069
40,489
41,84
43,12
44,329
45,478
46,577
47,645
48,697
49,744
50,788
51,831
52,87
53,9
54,917
55,912
56,874
57,793
58,665
59,482
60,242
60,939
61,565
62,115
62,583
62,965
63,26
63,466
63,584
63,616
63,564
63,433
63,229
62,955
62,616
62,217
61,76
61,251
60,694
60,094
59,455
58,783
58,082
57,358
56,615
55,86
55,095
54,325
53,553
52,784
52,02
51,265
50,521
49,791
49,08
48,39
47,723
47,081
46,466
45,879
45,321
44,791
44,289
43,814
43,366
42,946
42,555
42,196
41,87
41,581
41,332
41,127
40,971
40,868
40,819
40,828
40,898
41,035
41,248
41,543
41,922
42,384
42,928
43,548
44,238
44,986
45,772
46,577
47,385
48,182
48,967
49,742
50,505
51,258
51,998
52,732
53,48
54,266
55,108
56,029
57,049
58,201
59,538
61,105
62,937
65,06
67,475
70,167
73,119
76,307
79,694
83,226
86,83
90,42
93,936
97,324
100,538
103,522
106,193
108,478
110,319
111,678
112,544
112,931
112,858
112,355
111,481
110,311
108,944
107,483
105,974
104,441
102,88
101,299
99,75
98,27
96,856
95,483
94,097
92,627
91,037
89,245
87,064
84,388
81,206
77,629
74,045
70,894
68,495
67,252
67,654
69,841
73,611
78,402
82,907
85,796
86,154
82,913
75,143
62,883
47,071
29,471
13,221
1,864
-1,541
6,603
29,978
69,179
121,944
185,846
256,415
332,468
417,663
508,765
598,059
672,809
713,486
709,992
662,703
577,599
467,288
344,188
218,596
104,092
16,229
-36,088
-51,839
-40,4
-19,729
-1,74
9,059
14,214
20,283
29,006
38,353
46
48,965
47,125
42,488
36,605
31,24
27,841
26,814
28,268
31,976
37,251
43,41
49,904
56,149
61,597
65,968
69,138
71,117
72,068
72,124
71,37
69,897
67,822
65,258
62,337
59,216
56,019
52,866
49,867
47,09
44,59
42,405
40,55
39,017
37,798
36,877
36,254
35,953
35,971
36,28
36,828
37,528
38,305
39,099
39,86
40,551
41,143
41,619
41,98
42,244
42,429
42,549
42,604
42,583
42,484
42,316
42,099
41,862
41,632
41,425
41,264
41,168
41,155
41,234
41,409
41,673
42,024
42,459
42,982
43,597
44,306
45,11
46,007
46,994
48,068
49,224
50,458
51,758
53,118
54,527
55,979
57,466
58,98
60,509
62,043
63,57
65,077
66,551
67,978
69,343
70,631
71,83
72,924
73,902
74,75
75,457
76,012
76,404
76,624
76,664
76,517
76,175
75,632
74,886
73,931
72,764
71,385
69,793
67,988
65,972
63,749
61,321
58,695
55,877
52,873
49,692
46,343
42,837
39,183
35,394
31,481
27,457
23,336
19,13
14,853
10,518
6,139
1,729
-2,699
-7,134
-11,562
-15,972
-20,353
-24,694
-28,985
-33,216
-37,379
-41,464
-45,463
-49,37
-53,178
-56,88
-60,471
-63,947
-67,303
-70,538
-73,647
-76,63
-79,485
-82,213
-84,813
-87,287
-89,636
-91,862
-93,967
-95,955
-97,829
-99,592
-101,249
-102,803
-104,259
-105,621
-106,894
-108,082
-109,191
-110,224
-111,187
-112,085
-112,923
-113,704
-114,435
-115,12
-115,763
-116,37
-116,944
-117,491
-118,013
-118,515
-119
-119,47
-119,929
-120,379
-120,821
-121,257
-121,689
-122,116
-122,541
-122,962
-123,381
-123,795
-124,206
-124,611
-125,01
-125,401
-125,783
-126,154
-126,511
-126,854
-127,179
-127,484
-127,767
-128,024
-128,253
-128,449
-128,612
-128,736
-128,82
-128,862
-128,857
-128,806
-128,705
-128,555
-128,355
-128,104
-127,803
-127,453
-127,055
-126,611
-126,124
-125,597
-125,034
-124,437
-123,813
-123,166
-122,502
-121,825
-121,143
-120,461
-119,785
-119,124
-118,483
-117,871
-117,293
-116,759
-116,275
-115,849
-115,489
-115,2
-114,991
-114,865
-114,829
-114,886
-115,04
-115,292
-115,646
-116,1
-116,657
-117,314
-118,071
-118,925
-119,874
-120,914
-122,039
-123,244
-124,521
-125,861
-127,254
-128,69
-130,157
-131,643
-133,134
-134,619
-136,085
-137,519
-138,907
-140,235
-141,485
-142,643
-143,7
-144,648
-145,484
-146,205
-146,813
-147,313
-147,717
-148,037
-148,28
-148,455
-148,563
-148,607
-148,59
-148,518
-148,399
-148,231
-148,005
-147,708
-147,323
-146,833
-146,219
-145,452
-144,492
-143,31
-141,885
-140,205
-138,277
-136,111
-133,719
-131,122
-128,344
-125,426
-122,422
-119,39
-116,387
-113,47
-110,692
-108,118
-105,828
-103,889
-102,345
-101,228
-100,544
-100,295
-100,477
-101,076
-102,059
-103,384
-104,992
-106,836
-108,894
-111,15
-113,593
-116,195
-118,894
-121,651
-124,465
-127,356
-130,364
-133,533
-136,874
-140,435
-144,358
-148,702
-153,415
-158,293
-162,884
-166,72
-169,455
-170,696
-169,988
-167,157
-162,368
-156,27
-150,163
-145,345
-142,817
-143,556
-148,333
-157,226
-169,414
-182,924
-194,658
-201,504
-200,32
-187,768
-161,283
-119,119
-62,301
4,688
78,463
156,335
236,386
319,266
398,293
460,819
496,741
495,976
457,701
392,05
307,033
209,717
108,359
8,496
-81,894
-151,068
-195,709
-220,096
-229,859
-234,225
-236,977
-235,091
-228,004
-216,308
-202,511
-191,34
-184,767
-182,538
-183,836
-187,148
-191,244
-194,982
-196,994
-196,475
-193,266
-187,675
-180,327
-171,817
-162,673
-153,515
-144,981
-137,466
-131,159
-126,082
-122,137
-119,278
-117,465
-116,596
-116,552
-117,219
-118,5
-120,318
-122,596
-125,215
-128,047
-130,99
-133,951
-136,861
-139,644
-142,205
-144,46
-146,343
-147,813
-148,858
-149,47
-149,651
-149,41
-148,773
-147,779
-146,482
-144,933
-143,163
-141,209
-139,103
-136,889
-134,632
-132,378
-130,163
-128,01
-125,926
-123,92
-121,999
-120,16
-118,386
-116,659
-114,957
-113,269
-111,587
-109,901
-108,195
-106,441
-104,611
-102,685
-100,653
-98,508
-96,249
-93,874
-91,391
-88,823
-86,199
-83,547
-80,882
-78,205
-75,52
-72,832
-70,147
-67,475
-64,814
-62,144
-59,451
-56,73
-53,973
-51,178
-48,317
-45,337
-42,193
-38,854
-35,3
-31,54
-27,574
-23,394
-19,015
-14,471
-9,822
-5,162
-0,563
3,921
8,23
12,306
16,068
19,401
22,217
24,455
26,061
27,004
27,242
26,714
25,413
23,377
20,676
17,423
13,716
9,628
5,256
0,704
-3,913
-8,46
-12,837
-16,979
-20,813
-24,268
-27,264
-29,697
-31,518
-32,731
-33,36
-33,464
-33,101
-32,313
-31,172
-29,778
-28,213
-26,559
-24,872
-23,173
-21,502
-19,906
-18,442
-17,177
-16,151
-15,37
-14,835
-14,534
-14,448
-14,556
-14,817
-15,164
-15,55
-15,942
-16,321
-16,69
-17,038
-17,347
-17,602
-17,784
-17,88
-17,888
-17,801
-17,613
-17,325
-16,943
-16,483
-15,974
-15,432
-14,866
-14,28
-13,671
-13,036
-12,379
-11,694
-10,977
-10,223
-9,43
-8,598
-7,728
-6,822
-5,874
-4,88
-3,833
-2,728
-1,562
-0,332
0,963
2,324
3,751
5,24
6,788
8,39
10,044
11,746
13,493
15,283
17,111
18,975
20,869
22,79
24,733
26,693
28,664
30,64
32,618
34,592
36,557
38,509
40,443
42,354
44,239
46,093
47,911
49,689
51,422
53,105
54,734
56,305
57,813
59,256
60,631
61,935
63,165
64,322
65,402
66,406
67,331
68,179
68,948
69,64
70,255
70,795
71,261
71,655
71,981
72,24
72,436
72,572
72,65
72,674
72,647
72,574
72,46
72,308
72,125
71,916
71,691
71,455
71,215
70,979
70,752
70,542
70,354
70,194
70,064
69,969
69,914
69,902
69,941
70,033
70,184
70,398
70,678
71,03
71,455
71,952
72,518
73,15
73,844
74,601
75,421
76,302
77,239
78,224
79,251
80,31
81,389
82,467
83,515
84,503
85,413
86,232
86,958
87,588
88,122
88,559
88,9
89,159
89,342
89,455
89,495
89,462
89,366
89,237
89,129
89,092
89,168
89,38
89,738
90,254
90,923
91,736
92,666
93,67
94,725
95,821
96,96
98,145
99,362
100,562
101,657
102,552
103,144
103,357
103,141
102,442
101,213
99,408
96,996
93,966
90,308
85,968
80,802
74,733
67,827
60,33
52,747
45,626
39,398
34,503
31,482
30,607
31,718
34,169
36,55
37,348
35,535
30,203
20,573
6,595
-10,859
-29,818
-46,882
-58,406
-61,198
-52,095
-28,243
12,462
69,191
137,987
214,246
292,538
371,803
455,366
540,258
620,812
685,791
715,298
700,565
639,766
536,16
408,901
274,396
148,785
51,989
-10,839
-40,46
-44,243
-40,207
-37,777
-39,784
-45,441
-47,364
-43,577
-37,12
-30,682
-27,935
-30,049
-35,5
-42,97
-51,237
-58,904
-64,866
-68,549
-69,711
-68,566
-65,713
-61,675
-56,874
-51,891
-47,306
-43,453
-40,524
-38,545
-37,372
-36,917
-37,101
-37,79
-38,853
-40,187
-41,709
-43,369
-45,131
-46,934
-48,717
-50,441
-52,066
-53,565
-54,898
-56,009
-56,868
-57,469
-57,825
-57,963
-57,906
-57,668
-57,274
-56,756
-56,144
-55,466
-54,733
-53,935
-53,076
-52,167
-51,231
-50,307
-49,414
-48,557
-47,735
-46,945
-46,18
-45,437
-44,703
-43,956
-43,181
-42,366
-41,504
-40,6
-39,646
-38,632
-37,545
-36,364
-35,075
-33,674
-32,159
-30,54
-28,825
-27,026
-25,148
-23,191
-21,153
-19,033
-16,823
-14,522
-12,115
-9,582
-6,905
-4,076
-1,082
2,09
5,467
9,099
13,023
17,266
21,835
26,709
31,867
37,286
42,927
48,744
54,67
60,612
66,494
72,258
77,842
83,188
88,214
92,811
96,89
100,389
103,265
105,508
107,113
108,077
108,426
108,207
107,492
106,38
104,945
103,239
101,316
99,228
97,042
94,853
92,73
90,721
88,865
87,182
85,689
84,407
83,328
82,421
81,644
80,936
80,258
79,593
78,92
78,223
77,481
76,66
75,745
74,731
73,613
72,389
71,055
69,603
68,041
66,388
64,666
62,902
61,113
59,305
57,484
55,655
53,822
51,987
50,147
48,296
46,429
44,544
42,642
40,724
38,788
36,831
34,847
32,834
30,79
28,715
26,61
24,475
22,313
20,13
17,93
15,72
13,508
11,297
9,093
6,902
4,729
2,581
0,461
-1,623
-3,667
-5,665
-7,61
-9,496
-11,319
-13,072
-14,751
-16,353
-17,872
-19,308
-20,656
-21,916
-23,087
-24,168
-25,159
-26,06
-26,874
-27,601
-28,245
-28,807
-29,291
-29,7
-30,038
-30,31
-30,521
-30,674
-30,775
-30,829
-30,842
-30,82
-30,768
-30,691
-30,596
-30,489
-30,374
-30,258
-30,147
-30,044
-29,956
-29,886
-29,84
-29,82
-29,831
-29,874
-29,953
-30,07
-30,225
-30,42
-30,655
-30,932
-31,249
-31,607
-32,005
-32,444
-32,922
-33,438
-33,992
-34,582
-35,207
-35,866
-36,556
-37,275
-38,022
-38,794
-39,589
-40,405
-41,24
-42,091
-42,955
-43,831
-44,716
-45,606
-46,499
-47,392
-48,282
-49,166
-50,042
-50,906
-51,757
-52,593
-53,41
-54,208
-54,983
-55,732
-56,453
-57,143
-57,798
-58,415
-58,991
-59,52
-60,001
-60,431
-60,805
-61,122
-61,381
-61,58
-61,717
-61,791
-61,802
-61,747
-61,626
-61,438
-61,181
-60,857
-60,467
-60,014
-59,502
-58,933
-58,311
-57,64
-56,922
-56,157
-55,347
-54,488
-53,579
-52,627
-51,639
-50,628
-49,612
-48,603
-47,612
-46,653
-45,737
-44,87
-44,057
-43,294
-42,575
-41,901
-41,281
-40,728
-40,25
-39,832
-39,445
-39,053
-38,609
-38,07
-37,392
-36,518
-35,403
-34,014
-32,331
-30,364
-28,131
-25,642
-22,892
-19,887
-16,659
-13,282
-9,858
-6,489
-3,271
-0,309
2,255
4,261
5,554
5,997
5,536
4,098
1,558
-2,092
-6,768
-12,235
-17,978
-23,475
-28,352
-32,087
-34,112
-34,288
-32,705
-29,955
-27,386
-26,133
-26,993
-30,932
-38,553
-49,459
-62,59
-75,748
-85,524
-88,669
-82,158
-62,776
-27,838
22,277
84,506
155,281
229,326
305,655
388,122
474,271
558,831
630,102
666,446
655,775
593,859
485,505
352,451
216,239
97,492
12,216
-38,656
-61,165
-67,937
-71,627
-76,353
-81,231
-81,259
-72,985
-58,464
-42,103
-28,67
-20,575
-17,503
-18,2
-21,174
-25,325
-29,495
-32,318
-33,046
-31,523
-28,053
-23,29
-17,783
-11,945
-6,317
-1,449
2,348
4,972
6,517
7,212
7,227
6,689
5,733
4,499
3,121
1,718
0,402
-0,733
-1,615
-2,186
-2,407
-2,252
-1,697
-0,727
0,641
2,384
4,489
6,945
9,776
13,001
16,615
20,602
24,923
29,524
34,369
39,42
44,625
49,923
55,232
60,465
65,564
70,469
75,104
79,379
83,167
86,349
88,835
90,543
91,408
91,385
90,439
88,557
85,772
82,143
77,765
72,751
67,198
61,208
54,908
