Nom
Date de naissance
Date d’enregistrement,2022-02-27 15:53:02 +0100
Classification,Rythme sinusal
Symptômes,
Version du logiciel,1.52
Appareil,"Watch5,1"
Fréquence d’échantillonnage,511,242 hertz


Dérivation,Dérivation DI
Unité,µV

-357,146
-488,874
-489,978
-455,9
-452,955
-453,088
-442,432
-439,641
-443,969
-444,429
-438,504
-427,723
-415,507
-405,175
-397,433
-391,853
-387,827
-384,464
-381,011
-376,985
-372,061
-366,155
-359,511
-352,431
-345,076
-337,668
-330,524
-323,821
-317,63
-311,937
-306,555
-301,291
-296,014
-290,539
-284,672
-278,275
-271,224
-263,456
-254,98
-245,8
-235,931
-225,415
-214,287
-202,616
-190,509
-178,072
-165,427
-152,699
-139,999
-127,451
-115,196
-103,355
-92,04
-81,354
-71,365
-62,128
-53,694
-46,092
-39,349
-33,48
-28,457
-24,227
-20,725
-17,881
-15,645
-13,97
-12,789
-12,026
-11,606
-11,438
-11,43
-11,496
-11,526
-11,403
-11,017
-10,25
-9,013
-7,26
-4,952
-2,048
1,509
5,8
10,892
16,822
23,617
31,265
39,717
48,905
58,714
68,988
79,571
90,286
100,954
111,438
121,613
131,347
140,504
148,909
156,374
162,745
167,892
171,726
174,227
175,418
175,362
174,19
172,054
169,131
165,637
161,768
157,691
153,572
149,583
145,923
142,841
140,573
139,313
139,212
140,357
142,789
146,528
151,539
157,733
164,987
173,124
181,954
191,331
201,112
211,142
221,239
231,161
240,647
249,493
257,53
264,619
270,635
275,429
278,884
280,948
281,618
280,953
279,011
275,824
271,446
265,942
259,409
252,013
243,868
235,015
225,62
215,861
205,992
196,546
188,026
180,828
175,557
172,711
172,269
174,282
178,574
183,94
189,119
193,154
194,44
193,031
191,554
190,099
188,103
185,126
177,33
168,081
167,96
185,24
228,12
295,994
376,868
461,699
546,009
628,251
709,059
782,35
833,372
846,877
815,537
741,422
634,231
508,943
378,422
253,867
149,362
77,706
46,084
54,774
94,611
146,149
191,361
219,456
224,284
212,42
195,53
179,822
171,142
169,079
167,741
165,482
161,862
157,413
155,191
156,262
160,072
166,286
173,973
182,253
190,712
198,971
206,743
214,096
221,059
227,244
232,562
237,256
241,243
244,805
247,458
246,914
243,239
238,724
236,839
243,949
261,485
283,631
302,009
306,534
292,711
266,167
238,081
218,622
213,779
222,182
234,691
244,57
247,971
243,124
234,804
226,286
218,512
213,196
209,113
205,215
202,022
199,39
197,51
196,77
197,001
198,039
199,915
202,585
205,998
210,177
215,12
220,762
227,055
233,925
241,212
248,771
256,465
264,119
271,611
278,847
285,723
292,154
298,052
303,314
307,866
311,651
314,617
316,753
318,078
318,655
318,611
318,082
317,196
316,098
314,88
313,614
312,38
311,247
310,286
309,581
309,197
309,185
309,612
310,521
311,922
313,78
315,999
318,468
321,09
323,768
326,434
329,037
331,52
333,84
335,966
337,863
339,5
340,847
341,851
342,464
342,663
342,453
341,879
340,991
339,831
338,436
336,837
335,06
333,133
331,069
328,868
326,528
324,055
321,458
318,762
315,996
313,175
310,309
307,394
304,426
301,407
298,338
295,222
292,059
288,85
285,607
282,347
279,09
275,851
272,642
269,47
266,344
263,271
260,262
257,325
254,468
251,698
249,022
246,448
243,984
241,637
239,411
237,307
235,328
233,475
231,749
230,151
228,679
227,333
226,111
225,014
224,039
223,184
222,448
221,827
221,317
220,916
220,619
220,422
220,32
220,31
220,387
220,547
220,786
221,099
221,483
221,935
222,451
223,028
223,663
224,353
225,094
225,883
226,717
227,593
228,508
229,459
230,442
231,455
232,495
233,559
234,645
235,747
236,865
237,994
239,131
240,272
241,415
242,557
243,694
244,823
245,941
247,046
248,134
249,203
250,248
251,269
252,26
253,219
254,142
255,026
255,867
256,664
257,411
258,107
258,75
259,338
259,87
260,345
260,763
261,121
261,421
261,66
261,839
261,954
262,006
261,992
261,914
261,77
261,562
261,288
260,949
260,545
260,076
259,544
258,946
258,278
257,54
256,729
255,847
254,896
253,873
252,775
251,595
250,328
248,961
247,483
245,872
244,104
242,155
240,003
237,63
235,021
232,158
229,024
225,606
221,896
217,895
213,609
209,05
204,232
199,188
193,964
188,61
183,193
177,769
172,39
167,117
162,004
157,106
152,467
148,111
144,043
140,262
136,748
133,476
130,4
127,439
124,489
121,449
118,203
114,645
110,667
106,125
100,866
94,753
87,667
79,54
70,348
60,072
48,69
36,217
22,681
8,16
-7,193
-23,292
-40,105
-57,476
-75,148
-92,66
-109,273
-124,308
-137,261
-147,546
-154,662
-158,545
-159,329
-157,796
-155,55
-154,041
-154,555
-158,371
-166,032
-177,08
-190,67
-204,759
-215,759
-220,152
-214,186
-193,829
-158,066
-109,122
-49,091
18,187
90,911
173,025
263,358
356,139
441,028
496,009
503,283
454,336
346,858
198,148
33,996
-120,617
-238,278
-309,488
-341,043
-344,476
-339,063
-333,634
-324,12
-309,203
-287,998
-265,239
-253,441
-256,264
-268,73
-284,95
-295,567
-297,408
-295,379
-291,812
-288,88
-287,438
-284,763
-280,204
-274,592
-268,373
-262,675
-258,397
-255,612
-254,415
-254,922
-256,909
-260,156
-264,512
-269,748
-275,631
-281,957
-288,5
-295,031
-301,381
-307,427
-313,049
-318,139
-322,601
-326,345
-329,312
-331,488
-332,883
-333,515
-333,424
-332,668
-331,325
-329,516
-327,351
-324,927
-322,333
-319,627
-316,856
-314,069
-311,302
-308,585
-305,938
-303,373
-300,891
-298,501
-296,206
-293,996
-291,857
-289,758
-287,673
-285,585
-283,485
-281,37
-279,24
-277,096
-274,942
-272,791
-270,652
-268,534
-266,444
-264,386
-262,365
-260,387
-258,459
-256,593
-254,795
-253,072
-251,427
-249,867
-248,394
-247,01
-245,718
-244,514
-243,398
-242,37
-241,432
-240,585
-239,83
-239,168
-238,6
-238,129
-237,756
-237,481
-237,304
-237,224
-237,24
-237,351
-237,557
-237,855
-238,245
-238,725
-239,293
-239,95
-240,692
-241,521
-242,433
-243,427
-244,501
-245,655
-246,887
-248,195
-249,578
-251,034
-252,564
-254,167
-255,842
-257,59
-259,41
-261,301
-263,262
-265,291
-267,386
-269,545
-271,766
-274,047
-276,387
-278,785
-281,241
-283,755
-286,328
-288,96
-291,652
-294,402
-297,208
-300,065
-302,971
-305,922
-308,912
-311,938
-314,993
-318,074
-321,179
-324,308
-327,456
-330,619
-333,788
-336,956
-340,12
-343,278
-346,43
-349,575
-352,713
-355,854
-359,015
-362,21
-365,455
-368,757
-372,11
-375,509
-378,952
-382,431
-385,945
-389,479
-393,003
-396,497
-399,945
-403,328
-406,635
-409,834
-412,87
-415,696
-418,271
-420,568
-422,581
-424,303
-425,727
-426,863
-427,733
-428,388
-428,907
-429,358
-429,79
-430,253
-430,785
-431,446
-432,328
-433,506
-435,04
-436,978
-439,347
-442,177
-445,502
-449,316
-453,579
-458,208
-463,079
-468,083
-473,124
-478,112
-482,971
-487,61
-491,916
-495,797
-499,184
-502,01
-504,215
-505,736
-506,5
-506,482
-505,707
-504,233
-502,155
-499,553
-496,497
-493,053
-489,272
-485,202
-480,896
-476,376
-471,651
-466,737
-461,656
-456,439
-451,122
-445,702
-440,134
-434,361
-428,324
-421,981
-415,303
-408,272
-400,885
-393,16
-385,138
-376,888
-368,486
-359,989
-351,441
-342,88
-334,347
-325,912
-317,672
-309,718
-302,121
-294,932
-288,185
-281,904
-276,098
-270,748
-265,804
-261,191
-256,847
-252,732
-248,825
-245,118
-241,59
-238,2
-234,893
-231,625
-228,366
-225,095
-221,797
-218,464
-215,089
-211,683
-208,277
-204,916
-201,621
-198,39
-195,197
-191,999
-188,763
-185,467
-182,094
-178,621
-175,027
-171,3
-167,431
-163,424
-159,292
-155,05
-150,71
-146,291
-141,819
-137,34
-132,918
-128,629
-124,547
-120,743
-117,285
-114,249
-111,701
-109,7
-108,304
-107,548
-107,443
-107,968
-109,068
-110,682
-112,772
-115,293
-118,197
-121,429
-124,877
-128,483
-132,26
-136,082
-139,712
-142,773
-144,65
-144,819
-142,993
-138,797
-131,835
-122,159
-110,051
-96,331
-82,566
-70,004
-59,491
-51,969
-47,958
-47,085
-48,463
-50,049
-48,589
-41,159
-24,912
3,13
45,132
100,496
166,149
238,344
311,796
385,84
464,169
544,155
621,187
684,403
713,234
698,316
637,176
532,545
404,87
272,235
151,766
64,814
16,268
3,722
18,257
39,974
57,921
68,367
72,039
76,497
84,208
93,365
102,037
106,841
107,186
105,037
101,865
99,357
98,943
100,954
105,501
112,507
121,387
131,495
142,324
153,302
163,897
173,877
183,143
191,699
199,726
207,378
214,774
222,083
229,458
237,016
244,87
253,113
261,821
271,094
281,013
291,623
302,953
314,998
327,738
341,148
355,18
369,775
384,866
400,381
416,249
432,401
448,757
465,236
481,753
498,214
514,54
530,663
546,519
562,052
577,206
591,921
606,145
619,834
632,95
645,465
657,35
668,574
679,115
688,95
698,068
706,474
714,159
721,117
727,35
732,863
737,679
741,849
745,416
748,42
750,894
752,846
754,287
755,225
755,648
755,538
754,855
753,541
751,558
748,877
745,456
741,25
736,191
730,179
723,134
714,988
705,676
695,174
683,469
670,562
656,501
641,367
625,271
608,359
590,758
572,592
553,999
535,131
516,162
497,287
478,683
460,508
442,926
426,066
410,043
394,947
380,816
367,646
355,398
344,005
333,406
323,54
314,332
305,695
297,526
289,72
282,19
274,865
267,674
260,559
253,478
246,405
239,344
232,331
225,42
218,671
212,137
205,864
199,894
194,268
189,023
184,18
179,736
175,668
171,937
168,489
165,256
162,164
159,125
156,042
152,806
149,318
145,492
141,253
136,543
131,314
125,528
119,171
112,241
104,765
96,785
88,364
79,579
70,509
61,23
51,822
42,371
32,953
23,636
14,477
5,513
-3,223
-11,707
-19,923
-27,861
-35,524
-42,922
-50,082
-57,042
-63,832
-70,474
-76,997
-83,428
-89,797
-96,138
-102,465
-108,777
-115,067
-121,317
-127,513
-133,637
-139,666
-145,569
-151,318
-156,876
-162,22
-167,337
-172,205
-176,798
-181,079
-184,997
-188,524
-191,656
-194,401
-196,779
-198,824
-200,57
-202,076
-203,411
-204,64
-205,822
-207,005
-208,223
-209,527
-210,976
-212,642
-214,617
-216,972
-219,759
-223,02
-226,775
-231,024
-235,749
-240,895
-246,381
-252,137
-258,098
-264,206
-270,412
-276,651
-282,855
-288,952
-294,861
-300,508
-305,813
-310,699
-315,108
-319,006
-322,399
-325,345
-327,916
-330,173
-332,17
-333,942
-335,555
-337,114
-338,719
-340,431
-342,268
-344,21
-346,304
-348,689
-351,425
-354,413
-357,335
-359,772
-361,473
-362,441
-362,756
-362,283
-360,833
-358,471
-355,676
-353,179
-351,491
-350,413
-349,078
-346,804
-342,992
-336,634
-326,505
-311,132
-289,057
-259,921
-224,603
-184,047
-139,62
-93,546
-47,921
-4,929
32,949
64,252
88,557
105,581
116,137
122,356
126,168
129,353
133,896
141,086
151,853
167,182
186,823
209,193
232,647
255,847
277,666
297,458
314,543
328,004
337,66
344,227
348,685
351,778
353,859
354,938
355,063
354,536
353,515
351,79
348,961
344,68
338,793
331,384
322,573
312,295
300,559
287,519
273,466
258,954
244,527
230,523
217,42
205,832
195,933
187,657
180,621
173,728
166,138
157,403
146,585
132,79
116,128
97,326
77,947
60,77
48,203
42,243
45,941
62,559
92,497
133,493
182,702
235,64
292,529
359,148
434,69
513,097
581,297
617,52
608,897
554,084
459,095
338,56
207,173
76,101
-41,972
-133,66
-191,802
-215,734
-213,818
-202,405
-192,181
-187,195
-185,932
-181,98
-173,817
-163,56
-153,605
-147,16
-144,619
-144,252
-144,812
-144,776
-142,749
-138,363
-131,569
-122,569
-112,072
-100,783
-89,273
-78,25
-68,456
-60,348
-54,198
-50,112
-47,986
-47,711
-49,191
-52,259
-56,717
-62,385
-69,084
-76,665
-85,018
-94,038
-103,609
-113,593
-123,839
-134,19
-144,49
-154,603
-164,396
-173,772
-182,659
-190,996
-198,738
-205,853
-212,307
-218,054
-223,03
-227,135
-230,263
-232,34
-233,32
-233,193
-231,973
-229,681
-226,334
-221,949
-216,542
-210,132
-202,776
-194,532
-185,457
-175,641
-165,194
-154,248
-143,03
-131,742
-120,406
-109,047
-97,646
-86,137
-74,697
-63,541
-52,626
-41,922
-31,64
-21,887
-12,914
-5,025
2,192
9,246
16,266
23,444
31,098
39,353
48,644
59,47
71,38
83,874
96,819
109,912
122,932
135,798
148,029
159,089
169,169
178,406
186,71
194,158
200,617
205,906
210,171
213,546
215,866
217,037
217,005
215,664
213,108
209,442
204,652
198,778
191,904
184,109
175,549
166,374
156,665
146,515
135,998
125,171
114,113
102,878
91,506
80,057
68,576
57,114
45,757
34,576
23,653
13,092
2,936
-6,785
-16,039
-24,824
-33,131
-40,938
-48,248
-55,057
-61,358
-67,164
-72,487
-77,34
-81,775
-85,851
-89,64
-93,248
-96,736
-100,141
-103,499
-106,81
-110,073
-113,295
-116,476
-119,609
-122,704
-125,771
-128,828
-131,908
-135,019
-138,167
-141,356
-144,571
-147,826
-151,152
-154,57
-158,12
-161,85
-165,795
-169,996
-174,496
-179,313
-184,453
-189,903
-195,628
-201,601
-207,793
-214,171
-220,705
-227,353
-234,08
-240,873
-247,731
-254,647
-261,621
-268,641
-275,681
-282,734
-289,793
-296,86
-303,95
-311,062
-318,185
-325,296
-332,357
-339,323
-346,116
-352,611
-358,651
-364,064
-368,667
-372,304
-374,84
-376,135
-376,071
-374,533
-371,409
-366,625
-360,136
-351,924
-342,013
-330,449
-317,323
-302,796
-287,075
-270,397
-253,033
-235,23
-217,214
-199,232
-181,494
-164,205
-147,571
-131,75
-116,869
-103,038
-90,326
-78,776
-68,403
-59,158
-50,953
-43,675
-37,175
-31,315
-25,964
-20,971
-16,21
-11,573
-6,948
-2,261
2,545
7,522
12,701
18,094
23,707
29,512
35,459
41,498
47,553
53,548
59,407
65,043
70,39
75,405
80,05
84,304
88,154
91,584
94,594
97,192
99,384
101,178
102,583
103,607
104,272
104,615
104,683
104,523
104,166
103,636
102,953
102,146
101,254
100,316
99,362
98,424
97,554
96,82
96,319
96,136
96,337
96,973
98,075
99,675
101,818
104,527
107,802
111,611
115,877
120,525
125,485
130,674
135,99
141,285
146,354
150,991
155,008
158,211
160,461
161,583
161,305
159,538
156,353
151,983
146,972
141,825
136,818
132,387
129,084
126,987
125,929
125,303
123,632
119,773
113,172
103,036
88,869
71,287
51,433
31,469
15,217
5,895
5,849
18,133
45,255
88,017
146,329
217,064
293,517
369,982
442,392
509,135
570,67
625,444
668,123
687,253
671,59
615,211
517,412
390,489
252,863
120,9
12,407
-62,293
-102,008
-107,124
-85,059
-49,16
-11,374
14,373
18,048
0,232
-33,041
-70,457
-101,537
-122,845
-135,87
-145,936
-156,851
-169,125
-181,613
-191,806
-198,729
-202,965
-205,173
-206,288
-206,926
-207,072
-206,719
-205,899
-204,46
-202,348
-199,587
-196,145
-192,025
-187,286
-181,969
-176,115
-169,808
-163,12
-156,116
-148,894
-141,572
-134,277
-127,133
-120,245
-113,697
-107,561
-101,907
-96,799
-92,288
-88,406
-85,161
-82,557
-80,583
-79,195
-78,318
-77,836
-77,587
-77,428
-77,243
-76,921
-76,37
-75,505
-74,226
-72,454
-70,114
-67,125
-63,424
-58,968
-53,724
-47,712
-40,99
-33,648
-25,834
-17,677
-9,283
-0,774
7,745
16,168
24,363
32,218
39,624
46,437
52,516
57,738
61,983
65,176
67,273
68,239
68,098
66,887
64,637
61,408
57,263
52,261
46,501
40,085
33,115
25,743
18,128
10,423
2,8
-4,585
-11,587
-18,043
-23,83
-28,863
-33,049
-36,33
-38,64
-39,897
-40,073
-39,168
-37,19
-34,194
-30,245
-25,4
-19,765
-13,466
-6,638
0,541
7,914
15,353
22,709
29,837
36,569
42,692
48,046
52,514
55,983
58,37
59,591
59,547
58,2
55,568
51,688
46,647
40,53
33,409
25,404
16,658
7,355
-2,262
-11,979
-21,618
-30,98
-39,873
-48,085
-55,367
-61,541
-66,485
-70,094
-72,302
-73,049
-72,272
-69,965
-66,162
-60,925
-54,372
-46,617
-37,76
-27,947
-17,341
-6,141
5,414
17,133
28,862
40,442
51,735
62,595
72,882
82,5
91,383
99,47
106,729
113,137
118,672
123,359
127,247
130,41
132,951
134,951
136,482
137,626
138,468
139,104
139,62
140,075
140,512
140,981
141,525
142,179
142,967
143,887
144,924
146,053
147,241
148,458
149,673
150,845
151,928
152,872
153,634
154,19
154,521
154,605
154,423
153,96
153,21
152,179
150,875
149,307
147,486
145,426
143,146
140,668
138,017
135,222
132,305
129,283
126,167
122,968
119,692
116,348
112,946
109,493
105,996
102,458
98,881
95,266
91,611
87,909
84,144
80,294
76,336
72,26
68,07
63,776
59,391
54,921
50,369
45,741
41,054
36,327
31,577
26,816
22,068
17,373
12,798
8,428
4,34
0,584
-2,818
-5,854
-8,517
-10,803
-12,712
-14,265
-15,513
-16,498
-17,25
-17,812
-18,252
-18,673
-19,235
-20,105
-21,414
-23,277
-25,796
-29,052
-33,134
-38,118
-44,014
-50,836
-58,631
-67,341
-76,828
-86,859
-96,972
-106,696
-115,669
-123,385
-129,275
-133,199
-135,291
-135,987
-136,367
-137,299
-139,269
-143,144
-149,726
-158,841
-169,722
-180,932
-189,889
-194,243
-192,085
-180,744
-157,44
-121,801
-75,838
-22,049
35,643
95,776
161,789
233,575
305,968
370,747
412,336
415,87
377,307
296,672
180,484
46,288
-90,853
-213,876
-302,655
-351,779
-363,569
-347,748
-323,746
-302,109
-285,888
-274,109
-260,349
-243,102
-224,821
-207,82
-195,109
-187,022
-181,653
-177,403
-172,459
-165,345
-155,65
-143,334
-128,692
-112,443
-95,286
-77,811
-60,671
-44,489
-29,63
-16,28
-4,465
5,961
15,126
23,122
30,065
36,065
41,237
45,716
49,639
53,12
56,244
59,079
61,674
64,08
66,368
68,594
70,797
72,997
75,202
77,427
79,7
82,043
84,439
86,843
89,182
91,386
93,433
95,321
97,068
98,701
100,227
101,652
102,992
104,265
105,491
106,683
107,834
108,939
110,018
111,111
112,281
113,586
115,047
116,666
118,422
120,28
122,214
124,206
126,228
128,254
130,257
132,205
134,085
135,89
137,601
139,189
140,615
141,843
142,862
143,679
144,308
144,781
145,119
145,333
145,447
145,484
145,469
145,441
145,432
145,447
145,493
145,569
145,663
145,759
145,82
145,788
145,609
145,231
144,606
143,702
142,483
140,901
138,91
136,449
133,451
129,881
125,718
120,949
115,59
109,671
103,236
96,363
89,119
81,559
73,734
65,678
57,424
49,022
40,52
31,971
23,446
14,995
6,658
-1,525
-9,539
-17,385
-25,071
-32,636
-40,111
-47,51
-54,845
-62,118
-69,325
-76,47
-83,556
-90,579
-97,551
-104,479
-111,37
-118,237
-125,078
-131,882
-138,629
-145,29
-151,832
-158,232
-164,464
-170,498
-176,313
-181,891
-187,219
-192,294
-197,105
-201,634
-205,869
-209,792
-213,399
-216,7
-219,705
-222,43
-224,901
-227,152
-229,223
-231,178
-233,059
-234,9
-236,729
-238,562
-240,422
-242,342
-244,335
-246,396
-248,504
-250,617
-252,684
-254,654
-256,447
-257,958
-259,078
-259,673
-259,63
-258,865
-257,283
-254,797
-251,319
-246,751
-241,033
-234,154
-226,114
-216,949
-206,718
-195,486
-183,364
-170,514
-157,094
-143,275
-129,219
-115,054
-100,929
-87,017
-73,484
-60,5
-48,211
-36,706
-26,071
-16,379
-7,66
0,068
6,834
12,725
17,816
22,169
25,848
28,891
31,352
33,331
34,914
36,178
37,206
38,053
38,789
39,508
40,258
41,064
41,928
42,81
43,69
44,592
45,527
46,521
47,612
48,802
50,123
51,636
53,369
55,34
57,542
59,928
62,486
65,234
68,186
71,366
74,772
78,358
82,089
85,926
89,792
93,599
97,222
100,477
103,211
105,299
106,619
107,087
106,619
105,09
102,392
98,417
93,059
86,261
78,01
68,251
56,904
44,027
29,804
14,617
-0,897
-16,201
-30,949
-44,672
-56,792
-67,046
-75,414
-82,32
-89,071
-96,718
-105,609
-116,594
-130,603
-147,444
-166,74
-186,322
-200,815
-207,3
-204,98
-193,49
-176,789
-155,104
-123,22
-76,821
-8,02
85,932
197,325
315,61
421,738
497,399
533,824
523,585
470,683
383,021
263,244
124,99
-18,872
-152,505
-248,955
-298,503
-301,475
-267,814
-226,625
-195,009
-180,166
-184,257
-193,261
-199,382
-201,45
-197,509
-193,889
-193,832
-195,803
-199,728
-202,471
-201,763
-198,069
-191,391
-182,409
-172,196
-161,234
-150,185
-139,908
-130,857
-123,264
-117,269
-112,812
-109,849
-108,364
-108,24
-109,316
-111,441
-114,459
-118,254
-122,704
-127,632
-132,858
-138,178
-143,381
-148,303
-152,779
-156,655
-159,815
-162,133
-163,516
-163,919
-163,307
-161,667
-159,005
-155,307
-150,582
-144,879
-138,252
-130,793
-122,606
-113,775
-104,395
-94,571
-84,403
-74,01
-63,488
-52,899
-42,301
-31,742
-21,278
-10,984
-0,92
8,881
18,395
27,619
36,556
45,198
53,553
61,649
69,517
77,203
84,736
92,119
99,356
106,446
113,395
120,22
126,927
133,509
139,956
146,258
152,406
158,395
164,208
169,82
175,199
180,315
185,144
189,675
193,897
197,801
201,378
204,622
207,528
210,099
212,335
214,235
215,795
217,01
217,879
218,408
218,601
218,46
217,99
217,193
216,071
214,629
212,868
210,79
208,396
205,685
202,661
199,326
195,684
191,74
187,5
182,968
178,15
173,053
167,683
162,045
156,147
149,994
143,593
136,952
130,079
122,982
115,673
108,162
100,461
92,584
84,544
76,358
68,039
59,603
51,065
42,441
33,747
24,997
16,208
7,393
-1,431
-10,247
-19,036
-27,781
-36,461
-45,058
-53,551
-61,921
-70,144
-78,203
-86,08
-93,757
-101,216
-108,436
-115,393
-122,069
-128,447
-134,516
-140,267
-145,692
-150,787
-155,557
-160,014
-164,172
-168,044
-171,635
-174,935
-177,938
-180,641
-183,037
-185,126
-186,896
-188,321
-189,386
-190,076
-190,377
-190,276
-189,74
-188,718
-187,168
-185,06
-182,383
-179,155
-175,396
-171,126
-166,384
-161,218
-155,693
-149,9
-143,911
-137,781
-131,568
-125,328
-119,138
-113,104
-107,312
-101,829
-96,703
-91,951
-87,586
-83,617
-80,022
-76,758
-73,756
-70,924
-68,194
-65,518
-62,848
-60,138
-57,329
-54,338
-51,104
-47,582
-43,738
-39,55
-35,005
-30,091
-24,826
-19,256
-13,439
-7,455
-1,367
4,778
10,933
17,057
23,109
29,041
34,823
40,438
45,868
51,095
56,109
60,905
65,499
69,925
74,229
78,459
82,663
86,887
91,169
95,538
100,015
104,607
109,31
114,102
118,963
123,878
128,828
133,783
138,699
143,514
148,159
152,577
156,706
160,475
163,831
166,725
169,118
170,991
172,342
173,175
173,501
173,322
172,616
171,363
169,563
167,229
164,397
161,106
157,381
153,233
148,675
143,699
138,303
132,51
126,266
119,457
112,105
104,343
96,5
89,167
82,866
77,948
74,886
74,129
75,675
79,283
84,109
88,514
91,102
90,782
86,405
77,455
64,559
48,763
32,247
18,885
12,277
15,95
33,94
67,189
113,394
171,026
236,886
309,757
392,995
483,237
572,07
646,339
686,596
682,573
633,47
545,438
433,328
309,329
185,073
74,329
-14,177
-73,899
-105,329
-119,742
-127,251
-134,337
-143,284
-149,085
-148,874
-144,912
-140,169
-138,642
-142,485
-150,657
-161,513
-173,731
-185,888
-196,44
-204,496
-209,563
-211,524
-210,965
-208,502
-204,546
-199,689
-194,629
-189,78
-185,391
-181,535
-178,023
-174,709
-171,521
-168,334
-165,042
-161,578
-157,886
-153,959
-149,84
-145,573
-141,181
-136,699
-132,134
-127,48
-122,759
-117,999
-113,238
-108,525
-103,893
-99,359
-94,938
-90,643
-86,468
-82,396
-78,38
-74,338
-70,204
-65,911
-61,414
-56,692
-51,716
-46,455
-40,888
-34,999
-28,787
-22,265
-15,447
-8,341
-0,977
6,605
14,344
22,157
29,973
37,734
45,39
52,907
60,252
67,396
74,321
81,018
87,483
93,716
99,713
105,467
110,98
116,26
121,32
126,185
130,868
135,377
139,719
143,895
147,905
151,747
155,416
158,898
162,186
165,273
168,154
170,827
173,291
175,54
177,571
179,381
180,967
182,329
183,468
184,383
185,076
185,55
185,806
185,851
185,686
185,316
184,741
183,963
182,985
181,807
180,433
178,863
177,1
175,146
173,003
170,675
168,165
165,475
162,608
159,566
156,35
152,963
149,406
145,68
141,786
137,725
133,499
129,109
124,555
119,841
114,967
109,937
104,753
99,418
93,936
88,312
82,55
76,657
70,639
64,503
58,257
51,908
45,465
38,937
32,333
25,661
18,932
12,154
5,338
-1,506
-8,367
-15,234
-22,096
-28,94
-35,755
-42,529
-49,25
-55,906
-62,484
-68,975
-75,366
-81,648
-87,809
-93,84
-99,732
-105,475
-111,063
-116,488
-121,744
-126,824
-131,724
-136,439
-140,966
-145,301
-149,441
-153,383
-157,124
-160,662
-163,995
-167,121
-170,039
-172,747
-175,246
-177,534
-179,613
-181,483
-183,144
-184,596
-185,84
-186,877
-187,707
-188,331
-188,747
-188,958
-188,962
-188,76
-188,352
-187,739
-186,919
-185,892
-184,657
-183,215
-181,564
-179,705
-177,636
-175,358
-172,872
-170,178
-167,28
-164,179
-160,876
-157,376
-153,68
-149,793
-145,716
-141,452
-137,005
-132,378
-127,577
-122,607
-117,474
-112,186
-106,75
-101,177
-95,476
-89,657
-83,73
-77,705
-71,592
-65,402
-59,145
-52,833
-46,476
-40,084
-33,669
-27,247
-20,829
-14,427
-8,051
-1,707
4,592
10,833
17,001
23,081
29,055
34,903
40,602
46,121
51,434
56,517
61,352
65,928
70,229
74,242
77,96
81,376
84,495
87,331
89,901
92,218
94,313
96,217
97,972
99,637
101,256
102,872
104,526
106,254
108,098
110,092
112,249
114,574
117,062
119,683
122,416
125,232
128,074
130,885
133,596
136,117
138,37
140,267
141,698
142,549
142,709
142,094
140,64
138,28
134,956
130,625
125,245
118,823
111,369
102,817
93,212
82,718
71,603
60,354
49,484
39,387
30,548
23,563
18,705
15,908
14,742
14,106
12,896
10,372
5,629
-2,217
-13,285
-26,878
-41,574
-54,772
-63,42
-64,856
-56,012
-33,502
3,283
52,064
110,617
175,122
244,887
324,187
411,342
499,972
577,75
624,634
628,193
584,871
498,879
384,868
257,308
130,464
19,795
-65,235
-119,86
-146,756
-158,169
-165,274
-173,835
-184,01
-189,763
-187,183
-178,175
-167,128
-158,984
-156,219
-158,247
-163,589
-171,033
-179,7
-188,411
-195,8
-200,962
-203,591
-204
-202,829
-200,567
-197,605
-194,473
-191,726
-189,705
-188,533
-188,116
-188,225
-188,688
-189,374
-190,14
-190,838
-191,352
-191,583
-191,451
-190,898
-189,844
-188,225
-186,004
-183,16
-179,696
-175,629
-170,988
-165,814
-160,165
-154,095
-147,653
-140,886
-133,838
-126,559
-119,107
-111,543
-103,925
-96,3
-88,705
-81,172
-73,724
-66,375
-59,138
-52,013
-44,996
-38,086
-31,284
-24,594
-18,02
-11,564
-5,225
0,998
7,108
13,102
18,983
24,751
30,412
35,976
41,444
46,813
52,075
57,22
62,24
67,131
71,884
76,488
80,937
85,231
89,378
93,4
97,31
101,11
104,795
108,352
111,775
115,073
118,254
121,332
124,319
127,224
130,069
132,893
135,711
138,521
141,297
143,986
146,55
148,968
151,226
153,319
155,233
156,941
158,424
159,667
160,651
161,358
161,753
161,776
161,404
160,639
159,511
158,084
156,404
154,497
152,393
150,117
147,701
145,181
142,579
139,901
137,166
134,394
131,618
128,884
126,204
123,574
120,98
118,388
115,783
113,169
110,538
107,887
105,218
102,53
99,84
97,174
94,539
91,948
89,415
86,955
84,613
82,427
80,415
78,599
76,973
75,521
74,228
73,062
71,974
70,92
69,853
68,728
67,522
66,196
64,703
62,983
60,953
58,555
55,755
52,533
48,884
44,822
40,367
35,568
30,501
25,227
19,799
14,257
8,624
2,934
-2,762
-8,411
-13,947
-19,319
-24,495
-29,447
-34,154
-38,612
-42,827
-46,829
-50,67
-54,389
-58,007
-61,539
-64,985
-68,35
-71,647
-74,887
-78,078
-81,227
-84,338
-87,412
-90,456
-93,462
-96,42
-99,306
-102,088
-104,74
-107,248
-109,598
-111,784
-113,8
-115,64
-117,3
-118,784
-120,092
-121,223
-122,175
-122,946
-123,535
-123,944
-124,179
-124,244
-124,146
-123,889
-123,476
-122,912
-122,199
-121,342
-120,343
-119,205
-117,931
-116,527
-115
-113,359
-111,613
-109,77
-107,841
-105,834
-103,761
-101,633
-99,459
-97,252
-95,023
-92,787
-90,559
-88,352
-86,183
-84,063
-82,004
-80,018
-78,117
-76,311
-74,608
-73,018
-71,551
-70,222
-69,047
-68,043
-67,216
-66,571
-66,109
-65,823
-65,71
-65,764
-65,974
-66,331
-66,832
-67,48
-68,291
-69,279
-70,447
-71,791
-73,291
-74,933
-76,719
-78,657
-80,752
-83,025
-85,495
-88,19
-91,161
-94,443
-98,043
-101,951
-106,123
-110,51
-115,083
-119,822
-124,715
-129,736
-134,836
-139,961
-145,063
-150,07
-154,904
-159,454
-163,573
-167,149
-170,114
-172,43
-174,096
-175,116
-175,468
-175,132
-174,108
-172,411
-170,081
-167,16
-163,688
-159,73
-155,384
-150,795
-146,142
-141,562
-137,155
-132,995
-129,15
-125,717
-122,811
-120,534
-118,946
-118,075
-117,937
-118,573
-120,013
-122,261
-125,292
-128,989
-133,255
-138,102
-143,435
-149,066
-154,691
-159,747
-163,669
-166,075
-166,467
-164,289
-159,441
-152,091
-142,764
-132,718
-123,026
-114,401
-107,918
-104,436
-103,725
-104,916
-106,346
-105,152
-98,758
-84,939
-60,591
-22,789
28,478
90,764
161,09
234,9
311,565
394,727
481,872
566,65
637,605
676,634
674,241
629,739
548,057
443,016
327,858
214,578
116,963
44,002
-0,155
-18,082
-20,827
-18,685
-17,744
-19,375
-19,31
-15,25
-8,75
-2,322
0,565
-1,57
-7,615
-16,047
-25,353
-34,038
-40,953
-45,489
-47,392
-46,829
-44,378
-40,623
-36,071
-31,353
-27,108
-23,692
-21,286
-19,894
-19,339
-19,491
-20,242
-21,427
-22,872
-24,434
-25,987
-27,462
-28,832
-30,045
-31,048
-31,78
-32,16
-32,152
-31,748
-30,952
-29,792
-28,31
-26,561
-24,628
-22,611
-20,595
-18,65
-16,817
-15,107
-13,523
-12,051
-10,684
-9,426
-8,271
-7,208
-6,223
-5,296
-4,4
-3,506
-2,564
-1,508
-0,288
1,136
2,783
4,651
6,722
8,968
11,362
13,883
16,514
19,245
22,07
24,985
27,986
31,07
34,224
37,427
40,657
43,897
47,137
50,374
53,613
56,862
60,13
63,421
66,737
70,071
73,413
76,748
80,06
83,326
86,528
89,65
92,676
95,59
98,378
101,021
103,499
105,794
107,884
109,752
111,376
112,742
113,833
114,637
115,142
115,34
115,223
114,783
114,013
112,908
111,462
109,672
107,536
105,052
102,22
99,044
95,527
91,675
87,495
82,997
78,189
73,084
67,693
62,031
56,111
49,95
43,563
36,969
30,187
23,235
16,132
8,9
1,56
-5,868
-13,361
-20,898
-28,455
-36,011
-43,542
-51,025
-58,437
-65,755
-72,955
-80,014
-86,908
-93,616
-100,118
-106,392
-112,419
-118,179
-123,654
-128,828
-133,683
-138,203
-142,371
-146,171
-149,588
-152,61
-155,227
-157,429
-159,208
-160,555
-161,466
-161,941
-161,978
-161,574
-160,726
-159,429
-157,686
-155,508
-152,911
-149,911
-146,521
-142,758
-138,645
-134,207
-129,468
-124,442
-119,134
-113,55
-107,704
-101,619
-95,327
-88,861
-82,244
-75,489
-68,607
-61,617
-54,538
-47,384
-40,159
-32,857
-25,491
-18,099
-10,74
-3,475
3,655
10,621
17,404
23,984
30,327
36,4
42,17
47,618
52,721
57,449
61,753
65,579
68,902
71,733
74,114
76,087
77,674
78,891
79,749
80,268
80,476
80,399
80,053
79,448
78,605
77,557
76,357
75,06
73,7
72,285
70,801
69,239
67,602
65,9
64,142
62,329
60,463
58,557
56,634
54,717
52,823
50,961
49,127
47,316
45,537
43,804
42,144
40,573
39,107
37,756
36,533
35,452
34,525
33,757
33,144
32,681
32,366
32,201
32,188
32,329
32,621
33,058
33,633
34,345
35,189
36,165
37,269
38,486
39,802
41,204
42,675
44,198
45,749
47,297
48,815
50,28
51,676
52,992
54,212
55,316
56,281
57,08
57,697
58,134
58,397
58,495
58,452
58,293
58,06
57,815
57,605
57,459
57,393
57,406
57,506
57,716
58,064
58,58
59,276
60,14
61,152
62,29
63,508
64,754
65,948
66,974
67,744
68,198
68,297
68,01
67,285
66,037
64,164
61,581
58,238
54,096
49,11
43,241
36,471
28,796
20,275
10,968
0,827
-10,114
-21,719
-33,793
-45,884
-57,452
-68,06
-77,164
-84,098
-88,585
-90,74
-90,865
-89,98
-89,55
-90,603
-94,25
-101,91
-112,649
-124,682
-137,825
-149,379
-158,785
-166,308
-164,443
-147,307
-109,189
-45,814
34,308
122,301
211,046
295,753
380,281
463,212
536,589
588,002
600,685
568,048
493,222
384,998
259,673
131,292
13,09
-79,478
-138,885
-163,787
-160,879
-145,949
-129,765
-116,982
-107,091
-94,143
-76,68
-57,437
-39,306
-25,74
-17,422
-12,667
-10,148
-8,485
-6,357
-2,857
2,567
9,952
18,844
28,564
38,537
48,303
57,338
65,097
71,234
75,619
78,322
79,57
79,575
78,491
76,513
73,867
70,773
67,47
64,147
60,904
57,813
54,929
52,299
49,995
48,091
46,621
45,588
44,972
44,736
44,846
45,253
45,883
46,621
47,325
47,888
48,253
48,409
48,38
48,179
47,799
47,233
46,485
45,579
44,548
43,417
42,202
40,935
39,659
38,448
37,401
36,58
36,006
35,671
35,527
35,543
35,708
36,004
36,413
36,913
37,48
38,102
38,784
39,513
40,272
41,024
41,709
42,296
42,779
43,167
43,496
43,789
44,054
44,307
44,562
44,829
45,117
45,422
45,727
46,023
46,308
46,587
46,877
47,181
47,491
47,793
48,063
48,281
48,433
48,502
48,468
48,316
48,03
47,606
47,041
46,333
45,474
44,453
43,258
41,879
40,31
38,545
36,579
34,408
32,027
29,434
26,628
23,607
20,371
16,915
13,238
9,337
5,212
0,867
-3,698
-8,477
-13,465
-18,656
-24,042
-29,612
-35,357
-41,266
-47,326
-53,526
-59,849
-66,282
-72,807
-79,407
-86,063
-92,756
-99,466
-106,171
-112,85
-119,482
-126,042
-132,509
-138,86
-145,07
-151,117
-156,977
-162,627
-168,045
-173,208
-178,094
-182,682
-186,953
-190,888
-194,469
-197,679
-200,503
-202,929
-204,945
-206,54
-207,707
-208,44
-208,733
-208,585
-207,995
-206,966
-205,5
-203,604
-201,284
-198,552
-195,417
-191,894
-187,997
-183,742
-179,148
-174,233
-169,019
-163,528
-157,783
-151,808
-145,627
-139,267
-132,754
-126,114
-119,374
-112,562
-105,705
-98,829
-91,962
-85,13
-78,358
-71,672
-65,094
-58,648
-52,354
-46,233
-40,301
-34,576
-29,072
-23,803
-18,781
-14,015
-9,514
-5,286
-1,335
2,336
5,724
8,83
11,654
14,199
16,469
18,471
20,211
21,696
22,936
23,942
24,724
25,297
25,673
25,867
25,896
25,776
25,525
25,158
24,692
24,144
23,53
22,863
22,159
21,427
20,681
19,934
19,197
18,481
17,799
17,16
16,574
16,05
15,596
15,218
14,92
14,702
14,563
14,505
14,527
14,633
14,818
15,074
15,392
15,762
16,169
16,597
17,021
17,41
17,739
17,988
18,145
18,203
18,154
17,989
17,7
17,285
16,742
16,081
15,304
14,407
13,397
12,279
11,075
9,824
8,548
7,248
5,924
4,565
3,167
1,734
0,254
-1,297
-2,943
-4,708
-6,605
-8,629
-10,78
-13,061
-15,492
-18,109
-20,931
-23,953
-27,177
-30,623
-34,32
-38,319
-42,641
-47,259
-52,161
-57,367
-62,912
-68,857
-75,271
-82,17
-89,599
-97,681
-106,402
-115,643
-125,167
-134,476
-143,093
-150,704
-156,861
-161,053
-163,26
-163,746
-163,151
-162,814
-163,742
-166,509
-172,023
-180,951
-192,872
-206,67
-220,288
-230,518
-234,625
-230,151
-213,91
-183,277
-138,363
-81,607
-16,424
53,564
128,839
211,395
297,648
378,584
438,797
463,508
448,603
398,827
327,024
245,669
159,249
72,638
-9,541
-81,344
-131,094
-155,426
-159,772
-150,173
-136,587
-123,898
-109,303
-92,686
-74,638
-56,341
-41,57
-31,775
-26,133
-23,688
-23,026
-22,605
-21,282
-18,417
-13,673
-7,206
0,391
8,605
17,018
25,083
32,27
38,298
43,019
46,476
48,893
50,429
51,213
51,407
51,171
50,653
49,987
49,28
48,608
48,037
47,625
47,414
47,431
47,687
48,18
48,892
49,796
50,869
52,082
53,409
54,826
56,298
57,786
59,252
60,656
61,97
63,179
64,271
65,239
66,084
66,81
67,428
67,955
68,4
68,772
69,077
69,317
69,501
69,636
69,728
69,783
69,805
69,797
69,76
69,695
69,602
69,478
69,318
69,119
68,876
68,587
68,248
67,859
67,416
66,916
66,359
65,742
65,061
64,316
63,502
62,615
61,654
60,614
59,494
58,29
57,001
55,624
54,157
52,6
50,952
49,213
47,382
45,459
43,445
41,342
39,151
36,874
34,514
32,074
29,559
26,972
24,32
21,608
18,841
16,026
13,17
10,279
7,362
4,424
1,476
-1,475
-4,42
-7,35
-10,253
-13,122
-15,945
-18,713
-21,414
-24,04
-26,58
-29,024
-31,363
-33,587
-35,687
-37,654
-39,48
-41,155
-42,673
-44,027
-45,209
-46,214
-47,037
-47,674
-48,12
-48,372
-48,428
-48,285
-47,942
-47,399
-46,656
-45,712
-44,57
-43,232
-41,7
-39,98
-38,076
-35,992
-33,737
-31,316
-28,737
-26,009
-23,141
-20,141
-17,02
-13,788
-10,457
-7,036
-3,539
0,023
3,64
7,298
10,987
14,694
18,409
22,12
25,816
29,487
33,122
36,711
40,245
43,713
47,108
50,421
53,643
56,768
59,79
62,703
65,501
68,18
70,737
73,169
75,473
77,648
79,692
81,606
83,39
85,045
86,572
87,974
89,252
90,41
91,449
92,374
93,187
93,891
94,488
94,982
95,376
95,672
95,872
95,979
95,995
95,921
95,759
95,509
95,173
94,749
94,239
93,64
92,953
92,174
91,303
90,338
89,275
88,112
86,845
85,471
83,987
82,387
80,669
78,828
76,859
74,76
72,526
70,155
67,643
64,988
62,189
59,244
56,153
52,916
49,534
46,009
42,344
38,543
34,609
30,549
26,369
22,077
17,681
13,19
8,614
3,965
-0,746
-5,506
-10,303
-15,123
-19,952
-24,774
-29,574
-34,337
-39,048
-43,69
-48,248
-52,706
-57,048
-61,259
-65,326
-69,233
-72,967
-76,515
-79,867
-83,012
-85,941
-88,648
-91,127
-93,372
-95,38
-97,149
-98,676
-99,958
-100,993
-101,781
-102,324
-102,625
-102,689
-102,52
-102,122
-101,501
-100,663
-99,615
-98,36
-96,899
-95,238
-93,386
-91,359
-89,176
-86,853
-84,407
-81,852
-79,2
-76,46
-73,638
-70,728
-67,722
-64,615
-61,401
-58,083
-54,665
-51,141
-47,498
-43,711
-39,751
-35,6
-31,237
-26,649
-21,843
-16,837
-11,671
-6,409
-1,103
4,196
9,418
14,497
19,355
23,897
28,045
31,688
34,639
36,792
38,151
38,845
39,252
39,793
40,779
42,618
45,808
50,569
56,812
63,971
70,734
75,768
78,147
76,957
71,445
61,508
47,769
31,985
17,474
7,744
5,643
14,263
36,494
73,989
127,44
194,599
269,47
347,709
426,008
501,642
574,786
639,03
684,317
703,564
687,987
637,862
560,075
458,413
343,09
225,897
118,749
37,615
-9,589
-26,043
-22,745
-13,313
-6,167
-2,101
3,776
14,262
27,967
41,822
51,665
55,775
55,185
51,264
45,465
39,335
34,126
30,548
28,936
29,099
30,426
32,403
34,629
36,55
37,596
37,449
35,956
33,176
29,326
24,541
18,933
12,68
5,981
-0,952
-7,939
-14,858
-21,621
-28,149
-34,371
-40,23
-45,69
-50,743
-55,388
-59,632
-63,473
-66,891
-69,893
-72,508
-74,78
-76,789
-78,604
-80,279
-81,872
-83,425
-84,965
-86,516
-88,083
-89,651
-91,212
-92,755
-94,274
-95,78
-97,274
-98,743
-100,17
-101,524
-102,776
-103,902
-104,877
-105,673
-106,271
-106,652
-106,808
-106,739
-106,446
-105,922
-105,161
-104,15
-102,874
-101,327
-99,503
-97,402
-95,027
-92,386
-89,494
-86,369
-83,033
-79,501
-75,783
-71,882
-67,794
-63,518
-59,049
-54,394
-49,565
-44,577
-39,442
-34,173
-28,777
-23,254
-17,596
-11,79
-5,819
0,322
6,627
13,068
19,602
26,175
32,721
39,186
45,527
51,706
57,685
63,43
68,903
74,06
78,848
83,21
87,077
90,397
93,135
95,283
96,858
97,897
98,455
98,581
98,315
97,694
96,744
95,495
93,975
92,215
90,253
88,136
85,926
83,676
81,43
79,213
77,032
74,878
72,728
70,563
68,371
66,145
63,887
61,602
59,3
56,991
54,687
52,39
50,094
47,794
45,485
43,17
40,859
38,568
36,318
34,128
32,015
29,992
28,063
26,231
24,492
22,841
21,265
19,758
18,313
16,923
15,583
14,287
13,023
11,781
10,549
9,312
8,057
6,771
5,44
4,055
2,604
1,079
-0,526
-2,218
-4,003
-5,888
-7,88
-9,984
-12,206
-14,549
-17,02
-19,62
-22,352
-25,217
-28,213
-31,341
-34,596
-37,977
-41,479
-45,098
-48,829
-52,666
-56,603
-60,632
-64,746
-68,936
-73,194
-77,508
-81,87
-86,269
-90,694
-95,135
-99,58
-104,019
-108,44
-112,834
-117,188
-121,493
-125,736
-129,907
-133,994
-137,986
-141,87
-145,637
-149,275
-152,774
-156,124
-159,317
-162,342
-165,192
-167,857
-170,329
-172,6
-174,663
-176,511
-178,136
-179,532
-180,695
-181,62
-182,303
-182,74
-182,928
-182,865
-182,548
-181,975
-181,145
-180,055
-178,705
-177,095
-175,224
-173,096
-170,711
-168,075
-165,192
-162,068
-158,711
-155,128
-151,325
-147,31
-143,089
-138,669
-134,059
-129,267
-124,301
-119,172
-113,892
-108,475
-102,937
-97,293
-91,558
-85,745
-79,865
-73,931
-67,963
-61,978
-55,995
-50,04
-44,138
-38,324
-32,635
-27,098
-21,736
-16,563
-11,588
-6,818
-2,261
2,082
6,205
10,105
13,782
17,231
20,449
23,444
26,234
28,855
31,348
33,737
36,033
38,249
40,385
42,441
44,413
46,273
48,004
49,595
51,036
52,337
53,508
54,545
55,43
56,127
56,593
56,798
56,728
56,35
55,617
54,484
52,923
50,94
48,562
45,79
42,591
38,917
34,717
29,938
24,586
18,635
11,991
4,684
-3,149
-11,253
-19,125
-26,274
-32,4
-37,056
-39,706
-40,287
-39,002
-36,4
-33,775
-32,167
-32,2
-34,943
-41,323
-51,114
-63,398
-76,397
-86,986
-92,383
-90,233
-77,109
-49,636
-7,667
46,227
108,943
175,562
245,902
324,969
410,421
495,058
565,661
601,425
591,656
537,37
445,315
329,361
203,622
78,381
-33,557
-117,317
-165,999
-179,903
-168,212
-149,14
-134,615
-128,796
-130,596
-133,572
-135,031
-136,222
-138,919
-145,48
-155,72
-167,564
-179,12
-188,453
-194,647
-197,705
-197,729
-195,195
-190,789
-185,142
-178,994
-173,078
-167,777
-163,253
-159,556
-156,579
-154,222
-152,426
-151,062
-149,994
-149,131
-148,381
-147,68
-146,983
-146,203
-145,234
-143,975
-142,321
-140,211
-137,623
-134,542
-130,974
-126,937
-122,451
-117,557
-112,303
-106,737
-100,91
-94,869
-88,662
-82,345
-75,977
-69,616
-63,32
-57,131
-51,073
-45,165
-39,42
-33,841
-28,433
-23,192
-18,109
-13,178
-8,397
-3,76
0,735
5,092
9,319
13,426
17,42
21,309
25,097
28,79
32,392
35,907
39,336
42,683
45,948
49,133
52,24
55,274
58,237
61,132
63,962
66,727
69,429
72,069
74,644
77,154
79,594
81,961
84,251
86,457
88,576
90,599
92,521
94,333
96,028
97,597
99,032
100,323
101,463
102,441
103,25
103,88
104,325
104,577
104,629
104,475
104,11
103,529
102,729
101,707
100,459
98,986
97,286
95,361
93,212
90,842
88,255
85,457
82,454
79,253
75,865
72,297
68,562
64,67
60,635
56,471
52,192
47,814
43,353
38,826
34,25
29,642
25,021
20,404
15,809
11,253
6,752
2,325
-2,014
-6,248
-10,362
-14,343
-18,177
-21,85
-25,351
-28,67
-31,797
-34,722
-37,438
-39,939
-42,22
-44,276
-46,106
-47,708
-49,082
-50,231
-51,157
-51,865
-52,363
-52,656
-52,756
-52,672
-52,416
-52,002
-51,442
-50,753
-49,95
-49,049
-48,068
-47,023
-45,932
-44,814
-43,686
-42,565
-41,47
-40,418
-39,426
-38,512
-37,692
-36,982
-36,397
-35,954
-35,665
-35,544
-35,603
-35,851
-36,3
-36,955
-37,825
-38,915
-40,226
-41,763
-43,524
-45,51
-47,716
-50,138
-52,769
-55,601
-58,624
-61,827
-65,197
-68,721
-72,384
-76,171
-80,065
-84,049
-88,107
-92,22
-96,369
-100,536
-104,702
-108,846
-112,946
-116,982
-120,933
-124,778
-128,498
-132,071
-135,48
-138,707
-141,737
-144,556
-147,148
-149,498
-151,592
-153,416
-154,96
-156,212
-157,162
-157,801
-158,125
-158,135
-157,838
-157,238
-156,331
-155,115
-153,582
-151,728
-149,553
-147,052
-144,218
-141,051
-137,553
-133,744
-129,655
-125,306
-120,712
-115,878
-110,799
-105,482
-99,955
-94,245
-88,387
-82,419
-76,378
-70,319
-64,318
-58,425
-52,672
-47,061
-41,563
-36,167
-30,878
-25,702
-20,661
-15,756
-10,96
-6,252
-1,609
3,014
7,658
12,395
17,337
22,544
28,041
33,821
39,821
46,002
52,34
58,796
65,335
71,91
78,444
84,867
91,116
97,095
102,707
107,836
112,325
116,073
119,023
121,151
122,489
123,06
122,876
121,973
120,403
118,218
115,504
112,345
108,814
105,021
101,074
97,088
93,206
89,534
86,141
83,049
80,239
77,686
75,379
73,312
71,486
69,876
68,422
67,055
65,695
64,246
62,657
60,803
58,473
55,61
52,285
48,78
45,675
43,484
42,531
43,254
46,067
50,885
57,391
64,612
70,727
74,236
73,925
68,508
57,428
41,319
21,331
-0,031
-18,548
-30,386
-31,573
-17,595
12,781
57,431
114,64
180,639
254,337
340,08
434,702
529,237
608,943
651,668
645,877
592,377
498,844
379,575
247,219
111,381
-14,441
-113,187
-173,422
-191,783
-177,403
-150,621
-126,092
-110,563
-103,242
-96,43
-87,517
-78,238
-70,971
-69,376
-73,838
-82,114
-92,434
-102,73
-111,347
-117,828
-121,98
-123,933
-124,31
-123,723
-122,672
-121,7
-121,293
-121,653
-122,821
-124,703
-127,062
-129,701
-132,474
-135,223
-137,793
-140,062
-141,928
-143,301
-144,141
-144,418
-144,097
-143,168
-141,628
-139,487
-136,775
-133,536
-129,809
-125,633
-121,048
-116,087
-110,794
-105,219
-99,416
-93,439
-87,335
-81,135
-74,87
-68,564
-62,236
-55,898
-49,556
-43,208
-36,856
-30,504
-24,159
-17,829
-11,518
-5,229
1,036
7,275
13,483
19,656
25,789
31,88
37,921
43,908
49,831
55,685
61,46
67,154
72,76
78,275
83,695
89,015
94,231
99,34
104,338
109,22
113,982
118,617
123,121
127,488
131,712
135,788
139,709
143,469
147,062
150,482
153,724
156,782
159,65
162,322
164,794
167,06
169,116
170,958
172,582
173,985
175,163
176,115
176,838
177,331
177,592
177,622
177,418
176,982
176,315
175,417
174,291
172,939
171,365
169,574
167,571
165,361
162,952
160,351
157,567
154,607
151,481
148,199
144,771
141,206
137,516
133,712
129,805
125,806
121,727
117,579
113,375
109,125
104,841
100,535
96,219
91,903
87,601
83,324
79,084
74,893
70,763
66,705
62,731
58,85
55,074
51,411
47,871
44,463
41,193
38,071
35,102
32,293
29,649
27,175
24,876
22,755
20,815
19,057
17,484
16,095
14,892
13,874
13,04
12,39
11,92
11,629
11,514
11,569
11,79
12,171
12,705
13,384
14,201
15,146
16,211
17,386
18,662
20,028
21,473
22,987
24,557
26,173
27,821
29,489
31,163
32,83
34,477
36,092
37,661
39,173
40,616
41,979
43,251
44,421
45,478
46,409
47,203
47,846
48,327
48,633
48,753
48,678
48,398
47,907
47,198
46,269
45,117
43,735
42,12
40,264
38,163
35,815
33,226
30,403
27,357
24,108
20,674
17,078
13,336
9,464
5,466
1,344
-2,905
-7,281
-11,778
-16,379
-21,068
-25,83
-30,656
-35,537
-40,474
-45,476
-50,554
-55,732
-61,016
-66,4
-71,861
-77,353
-82,822
-88,204
-93,444
-98,5
-103,334
-107,908
-112,186
-116,13
-119,696
-122,832
-125,478
-127,56
-129,02
-129,82
-129,954
-129,444
-128,331
-126,68
-124,549
-121,988
-119,052
-115,784
-112,222
-108,405
-104,368
-100,151
-95,806
-91,399
-86,988
-82,614
-78,287
-73,991
-69,687
-65,321
-60,842
-56,206
-51,361
-46,272
-40,921
-35,301
-29,419
-23,29
-16,919
-10,297
-3,423
3,689
10,996
18,426
25,893
33,307
40,585
47,649
54,414
60,802
66,762
72,262
77,289
81,831
85,848
89,277
92,065
94,185
95,656
96,519
96,802
96,52
95,681
94,267
92,316
89,829
86,694
82,909
78,573
73,884
69,324
65,409
62,464
60,942
61,375
63,75
67,766
72,762
77,273
80,061
80,317
76,845
68,694
56,157
40,262
22,981
7,684
-2,55
-4,966
4,066
27,991
67,266
119,538
181,621
248,502
318,638
396,017
479,829
565,213
642,973
692,882
698,426
652,203
551,66
411,627
255,579
106,671
-8,985
-79,697
-108,096
-105,006
-90,754
-77,549
-68,24
-61,11
-48,722
-29,885
-8,562
11,797
26,334
33,109
33,19
27,194
16,841
5,014
-6,373
-16,229
-23,811
-29,21
-32,609
-33,671
-32,764
-31,14
-29,757
-29,222
-29,841
-31,379
-33,686
-36,978
-41,168
-45,851
-50,724
-55,49
-60
-64,339
-68,504
-72,387
-75,956
-79,211
-82,178
-84,945
-87,579
-90,122
-92,656
-95,235
-97,903
-100,71
-103,669
-106,791
-110,077
-113,509
-117,09
-120,831
-124,746
-128,849
-133,136
-137,563
-142,064
-146,552
-150,91
-155,056
-158,926
-162,459
-165,619
-168,382
-170,731
-172,669
-174,188
-175,254
-175,817
-175,836
-175,277
-174,143
-172,463
-170,279
-167,661
-164,669
-161,346
-157,739
-153,871
-149,761
-145,42
-140,851
-136,063
-131,085
-125,965
-120,747
-115,468
-110,149
-104,793
-99,395
-93,932
-88,385
-82,741
-76,992
-71,141
-65,199
-59,182
-53,11
-47,008
-40,888
-34,755
-28,617
-22,479
-16,357
-10,273
-4,251
1,674
7,47
13,108
18,558
23,8
28,816
33,593
38,118
42,387
46,39
50,12
53,566
56,719
59,574
62,126
64,376
66,325
67,976
69,334
70,405
71,194
71,707
71,95
71,929
71,65
71,119
70,344
69,334
68,099
66,65
64,997
63,151
61,124
58,929
56,575
54,076
51,441
48,682
45,812
42,842
39,784
36,651
33,455
30,209
26,926
23,618
20,297
16,972
13,654
10,353
7,076
3,831
0,623
-2,54
-5,653
-8,708
-11,698
-14,617
-17,458
-20,214
-22,879
-25,446
-27,91
-30,268
-32,519
-34,658
-36,681
-38,578
-40,346
-41,985
-43,496
-44,884
-46,155
-47,314
-48,378
-49,369
-50,31
-51,22
-52,111
-52,984
-53,84
-54,682
-55,513
-56,337
-57,15
-57,929
-58,661
-59,335
-59,938
-60,458
-60,864
-61,106
-61,146
-60,954
-60,52
-59,858
-58,984
-57,91
-56,666
-55,287
-53,83
-52,373
-50,981
-49,696
-48,571
-47,648
-46,996
-46,705
-46,849
-47,477
-48,621
-50,283
-52,463
-55,161
-58,349
-61,976
-65,972
-70,239
-74,702
-79,312
-84,01
-88,746
-93,451
-98,035
-102,431
-106,589
-110,468
-114,041
-117,285
-120,17
-122,695
-124,881
-126,759
-128,377
-129,768
-130,941
-131,91
-132,686
-133,281
-133,718
-134,006
-134,142
-134,122
-133,945
-133,606
-133,109
-132,443
-131,586
-130,516
-129,202
-127,622
-125,76
-123,604
-121,148
-118,393
-115,339
-112,001
-108,401
-104,565
-100,524
-96,308
-91,941
-87,446
-82,844
-78,158
-73,41
-68,624
-63,828
-59,046
-54,294
-49,581
-44,907
-40,259
-35,611
-30,923
-26,135
-21,192
-16,051
-10,685
-5,081
0,762
6,839
13,144
19,672
26,416
33,371
40,522
47,839
55,272
62,751
70,174
77,416
84,348
90,855
96,846
102,252
107,027
111,143
114,569
117,283
119,245
120,376
120,614
119,907
118,23
115,62
112,129
107,814
102,757
97,023
90,656
83,735
76,266
68,159
59,463
50,326
41,058
32,281
24,574
18,338
14,09
12,326
13,094
16,172
20,777
25,373
28,644
29,64
27,343
21,177
11,545
-0,495
-12,759
-21,866
-24,525
-17,673
1,819
36,485
85,96
147,535
218,013
292,203
368,297
448,326
528,487
603,397
663,125
689,653
673,609
611,566
506,923
377,612
242,267
120,407
28,407
-30,222
-59,388
-70,827
-76,706
-82,011
-86,909
-86,845
-78,948
-65,48
-50,744
-39,624
-34,605
-35,364
-40,633
-48,779
-58,443
-68,226
-76,611
-82,712
-86,247
-87,439
-86,886
-85,141
-82,677
-80,067
-77,844
-76,289
-75,482
-75,33
-75,645
-76,31
-77,245
-78,376
-79,656
-81,077
-82,67
-84,462
-86,463
-88,657
-91,033
-93,612
-96,444
-99,579
-103,037
-106,831
-110,947
-115,352
-120,004
-124,817
-129,665
-134,417
-138,927
-143,067
-146,757
-149,919
-152,473
-154,334
-155,391
-155,555
-154,774
-153,009
-150,249
-146,514
-141,837
-136,29
-129,994
-123,072
-115,663
-107,906
-99,897
-91,725
-83,479
-75,238
-67,094
-59,131
-51,4
-43,944
-36,79
-29,949
-23,425
-17,202
-11,233
-5,464
0,162
5,708
11,209
16,688
22,171
27,67
33,203
38,785
44,415
50,088
55,8
61,542
67,303
73,069
78,808
84,484
90,064
95,507
100,785
105,874
110,753
115,405
119,82
123,987
127,898
131,545
134,915
137,997
140,787
143,277
145,468
147,363
148,97
150,304
151,39
152,249
152,896
153,337
153,568
153,588
153,396
152,99
152,372
151,533
150,459
149,146
147,593
145,796
143,745
141,412
138,752
135,73
132,33
128,556
124,431
119,975
115,22
110,205
104,984
99,632
94,22
88,8
83,417
78,111
72,937
67,972
63,309
59,021
55,159
51,748
48,797
46,311
44,279
42,667
41,413
40,433
39,655
39,028
38,513
38,074
37,662
37,211
36,645
35,908
34,957
33,762
32,299
30,547
28,497
26,166
23,589
20,82
17,895
14,835
11,649
8,344
4,933
1,436
-2,129
-5,753
-9,432
-13,159
-16,928
-20,727
-24,556
-28,421
-32,341
-36,336
-40,419
-44,592
-48,851
-53,191
-57,606
-62,089
-66,626
-71,2
-75,793
-80,392
-84,983
-89,554
-94,091
-98,576
-102,989
-107,31
-111,521
-115,606
-119,549
-123,334
-126,947
-130,374
-133,606
-136,632
-139,445
-142,034
-144,391
-146,506
-148,374
-149,987
-151,341
-152,43
-153,253
-153,806
-154,09
-154,106
-153,856
-153,341
-152,567
-151,538
-150,258
-148,735
-146,974
-144,983
-142,768
-140,34
-137,705
-134,873
-131,853
-128,655
-125,289
-121,764
-118,089
-114,276
-110,332
-106,268
-102,093
-97,818
-93,453
-89,008
-84,494
-79,919
-75,294
-70,627
-65,926
-61,197
-56,449
-51,687
-46,919
-42,15
-37,385
-32,63
-27,892
-23,179
-18,494
-13,84
-9,217
-4,628
-0,084
4,407
8,832
13,179
17,434
21,58
25,59
29,445
33,128
36,626
39,935
43,043
45,933
48,588
50,985
53,117
54,992
56,618
58,004
59,168
60,134
60,945
61,665
62,339
62,996
63,661
64,347
65,093
65,949
66,957
68,162
69,578
71,203
73,036
75,075
77,295
79,653
82,061
84,401
86,591
88,565
90,265
91,616
92,476
92,693
92,132
90,683
88,293
84,908
80,435
74,811
68,006
60,028
50,992
40,976
29,935
17,956
5,263
-7,773
-20,479
-32,188
-42,41
-50,541
-55,993
-58,624
-58,586
-56,49
-53,496
-50,901
-50,081
-52,155
-57,785
-65,725
-72,914
-77,397
-77,426
-72,904
-65,838
-52,917
-28,432
13,005
78,784
168,342
275,527
393,32
507,856
605,189
672,76
699,14
681,119
623,183
533,985
422,333
297,742
169,862
50,709
-42,699
-100,129
-120,864
-113,812
-96,962
-82,521
-74,754
-72,163
-68,518
-62,238
-55,458
-50,543
-50,373
-54,978
-62,292
-70,692
-78,337
-83,718
-86,408
-86,282
-83,533
-78,855
-72,948
-66,423
-59,971
-54,199
-49,39
-45,633
-42,883
-40,942
-39,663
-38,932
-38,59
-38,494
-38,538
-38,637
-38,743
-38,827
-38,835
-38,707
-38,416
-37,96
-37,383
-36,763
-36,165
-35,654
-35,292
-35,138
-35,255
-35,697
-36,493
-37,665
-39,226
-41,176
-43,511
-46,214
-49,236
-52,52
-55,999
-59,584
-63,209
-66,811
-70,325
-73,702
-76,898
-79,873
-82,607
-85,09
-87,309
-89,263
-90,957
-92,405
-93,644
-94,701
-95,599
-96,364
-97,01
-97,543
-97,973
-98,297
-98,506
-98,59
-98,537
-98,328
-97,954
-97,399
-96,645
-95,673
-94,456
-92,975
-91,217
-89,175
-86,844
-84,226
-81,322
-78,143
-74,704
-71,019
-67,103
-62,972
-58,64
-54,123
-49,44
-44,609
-39,651
-34,585
-29,431
-24,206
-18,93
-13,622
-8,301
-2,982
2,317
7,58
12,79
17,928
22,977
27,92
32,74
37,42
41,945
46,299
50,47
54,445
58,215
61,77
65,105
68,212
71,087
73,727
76,13
78,295
80,223
81,913
83,369
84,595
85,594
86,373
86,937
87,292
87,446
87,407
87,182
86,78
86,209
85,479
84,6
83,582
82,436
81,174
79,807
78,347
76,806
75,196
73,528
71,812
70,059
68,277
66,475
64,66
62,841
61,022
59,211
57,41
55,626
53,861
52,119
50,401
48,707
47,039
45,396
43,779
42,188
40,621
39,079
37,563
36,071
34,604
33,16
31,738
30,334
28,946
27,571
26,204
24,839
23,474
22,104
20,728
19,345
17,953
16,553
15,146
13,731
12,313
10,891
9,466
8,036
6,603
5,169
3,74
2,322
0,914
-0,486
-1,88
-3,272
-4,667
-6,074
-7,515
-9,007
-10,566
-12,206
-13,927
-15,731
-17,62
-19,596
-21,661
-23,808
-26,018
-28,267
-30,542
-32,827
-35,102
-37,337
-39,477
-41,477
-43,295
-44,899
-46,274
-47,404
-48,281
-48,904
-49,293
-49,485
-49,537
-49,517
-49,473
-49,456
-49,524
-49,751
-50,241
-51,087
-52,375
-54,189
-56,591
-59,647
-63,405
-67,883
-73,064
-78,899
-85,315
-92,22
-99,532
-107,16
-115,002
-122,94
-130,826
-138,515
-145,861
-152,704
-158,897
-164,292
-168,761
-172,217
-174,607
-175,909
-176,127
-175,284
-173,409
-170,549
-166,759
-162,103
-156,67
-150,554
-143,865
-136,735
-129,295
-121,67
-113,975
-106,294
-98,693
-91,225
-83,922
-76,802
-69,878
-63,147
-56,607
-50,262
-44,103
-38,116
-32,276
-26,538
-20,866
-15,232
-9,613
-4,001
1,61
7,219
12,811
18,357
23,824
29,177
34,384
39,421
44,265
48,893
53,284
57,421
61,296
64,906
68,253
71,334
74,153
76,715
79,04
81,166
83,127
84,958
86,69
88,347
89,943
91,47
92,893
94,153
95,193
95,972
96,455
96,585
96,285
95,484
94,12
92,147
89,497
86,007
81,574
76,248
70,269
64,048
57,983
52,366
47,542
44,045
42,207
41,934
42,577
42,988
42,305
39,823
34,611
25,932
13,293
-1,885
-15,529
-24,968
-29,144
-28,681
-27,073
-21,12
-1,862
36,838
100,628
185,722
277,868
368,988
454,813
531,458
600,716
655,478
677,945
657,779
587,416
469,596
326,71
181,049
55,31
-32,276
-81,366
-99,275
-99,478
-95,94
-93,372
-90,878
-84,016
-70,037
-51,147
-31,877
-17,071
-8,926
-7,003
-9,983
-16,063
-23,756
-31,84
-38,963
-44,378
-48,048
-50,196
-51,313
-51,915
-52,398
-53,252
-54,984
-57,815
-61,725
-66,561
-72,062
-78,017
-84,287
-90,684
-97,015
-103,13
-108,898
-114,251
-119,173
-123,637
-127,615
-131,097
-134,07
-136,544
-138,551
-140,119
-141,273
-142,04
-142,443
-142,512
-142,287
-141,806
-141,11
-140,226
-139,169
-137,952
-136,583
-135,063
-133,395
-131,573
-129,582
-127,415
-125,063
-122,523
-119,792
-116,867
-113,741
-110,408
-106,864
-103,108
-99,139
-94,958
-90,568
-85,972
-81,176
-76,186
-71,014
-65,667
-60,154
-54,484
-48,666
-42,712
-36,633
-30,441
-24,149
-17,771
-11,322
-4,818
1,725
8,29
14,86
21,418
27,946
34,427
40,842
47,173
53,403
59,513
65,484
71,298
76,938
82,385
87,624
92,636
97,406
101,919
106,161
110,117
113,777
117,129
120,164
122,872
125,249
127,287
128,984
130,338
131,348
132,015
132,341
132,33
131,987
131,318
130,331
129,035
127,439
125,554
123,391
120,964
118,286
115,371
112,235
108,892
105,361
101,656
97,797
93,801
89,686
85,471
81,175
76,815
72,411
67,98
63,54
59,106
54,696
50,324
46,004
41,75
37,575
33,488
29,502
25,627
21,87
18,24
14,744
11,387
8,175
5,112
2,2
-0,559
-3,165
-5,617
-7,916
-10,065
-12,067
-13,926
-15,648
-17,24
-18,709
-20,065
-21,319
-22,48
-23,561
-24,573
-25,527
-26,435
-27,309
-28,157
-28,992
-29,823
-30,661
-31,519
-32,407
-33,338
-34,325
-35,379
-36,511
-37,736
-39,062
-40,498
-42,049
-43,724
-45,527
-47,471
-49,56
-51,796
-54,177
-56,699
-59,355
-62,137
-65,032
-68,015
-71,063
-74,153
-77,263
-80,383
-83,505
-86,616
-89,704
-92,754
-95,76
-98,73
-101,678
-104,611
-107,537
-110,464
-113,406
-116,407
-119,502
-122,715
-126,068
-129,553
-133,161
-136,891
-140,733
-144,664
-148,645
-152,605
-156,465
-160,161
-163,63
-166,81
-169,625
-171,959
-173,7
-174,76
-175,061
-174,554
-173,2
-170,943
-167,748
-163,618
-158,581
-152,699
-146,061
-138,732
-130,776
-122,275
-113,331
-104,094
-94,725
-85,368
-76,155
-67,202
-58,618
-50,526
-43,036
-36,207
-30,078
-24,658
-19,936
-15,921
-12,632
-10,05
-8,13
-6,79
-5,912
-5,384
-5,107
-4,979
-4,907
-4,791
-4,529
-4,056
-3,33
-2,31
-0,966
0,752
2,92
5,572
8,716
12,33
16,356
20,728
25,398
30,307
35,399
40,615
45,885
51,157
56,397
61,555
66,575
71,373
75,833
79,866
83,414
86,434
88,915
90,848
92,221
93,035
93,303
93,042
92,279
91,037
89,334
87,207
84,715
81,949
79,028
76,051
73,095
70,228
67,5
64,951
62,592
60,409
58,368
56,44
54,61
52,859
51,146
49,404
47,543
45,446
43,018
40,144
36,647
32,452
27,591
22,225
16,78
11,735
7,455
4,404
3,109
3,723
6,108
9,772
13,463
15,913
16,18
13,069
5,597
-6,197
-21,585
-39,086
-55,539
-67,442
-71,711
-64,178
-42,08
-6,021
43,006
103,132
173,051
255,816
352,22
456,008
554,253
626,992
657,207
638,619
575,603
480,281
364,092
236,887
107,62
-12,24
-107,054
-167,135
-189,474
-182,311
-161,315
-135,921
-114,808
-99,425
-87,159
-81,465
-79,992
-81,258
-85,714
-89,187
-92,661
-97,614
-102,8
-108,524
-113,227
-115,332
-115,297
-113,608
-110,979
-108,202
-105,659
-103,699
-102,594
-102,411
-103,038
-104,24
-105,832
-107,66
-109,581
-111,47
-113,182
-114,595
-115,622
-116,195
-116,261
-115,778
-114,717
-113,069
-110,843
-108,061
-104,759
-100,984
-96,777
-92,184
-87,248
-82,007
-76,515
-70,823
-64,986
-59,059
-53,084
-47,093
-41,112
-35,162
-29,257
-23,406
-17,61
-11,868
-6,181
-0,554
5,01
10,504
15,926
21,275
26,551
31,754
36,88
41,928
46,896
51,781
56,579
61,286
65,896
70,405
74,808
79,103
83,286
87,356
91,309
95,144
98,857
102,445
105,907
109,236
112,431
115,486
118,398
121,162
123,776
126,235
128,534
130,67
132,638
134,435
136,055
137,495
138,751
139,819
140,696
141,378
141,863
142,148
142,232
142,113
141,789
141,26
140,526
139,588
138,445
137,101
135,558
133,821
131,893
129,779
127,486
125,021
122,389
119,598
116,657
113,573
110,354
107,009
103,548
99,981
96,318
92,568
88,742
84,849
80,9
76,903
72,864
68,793
64,696
60,58
56,452
52,32
48,189
44,068
39,963
35,88
31,826
27,803
23,815
19,861
15,942
12,057
8,204
4,381
0,584
-3,19
-6,941
-10,67
-14,38
-18,075
-21,764
-25,454
-29,146
-32,845
-36,55
-40,262
-43,976
-47,686
-51,373
-55,018
-58,607
-62,123
-65,565
-68,93
-72,218
-75,427
-78,558
-81,62
-84,632
-87,617
-90,588
-93,562
-96,553
-99,589
-102,718
-105,983
-109,424
-113,072
-116,945
-121,05
-125,386
-129,937
-134,669
-139,521
-144,412
-149,245
-153,939
-158,426
-162,633
-166,483
-169,874
-172,71
-174,907
-176,384
-177,074
-176,914
-175,865
-173,914
-171,09
-167,464
-163,136
-158,235
-152,884
-147,181
-141,222
-135,102
-128,922
-122,78
-116,769
-110,974
-105,483
-100,391
-95,769
-91,663
-88,079
-84,978
-82,295
-79,934
-77,794
-75,792
-73,863
-71,95
-70,005
-67,988
-65,857
-63,583
-61,125
-58,429
-55,455
-52,174
-48,578
-44,688
-40,545
-36,207
-31,747
-27,226
-22,689
-18,173
-13,698
-9,278
-4,928
-0,653
3,539
7,628
11,596
15,43
19,113
22,645
26,03
29,282
32,421
35,468
38,432
41,321
44,135
46,869
49,519
52,076
54,529
56,869
59,09
61,187
63,16
65,004
66,714
68,286
69,714
70,992
72,121
73,096
73,915
74,568
75,05
75,355
75,482
75,431
75,204
74,808
74,255
73,564
72,757
71,856
70,878
69,837
68,748
67,627
66,502
65,403
64,365
63,415
62,577
61,873
61,311
60,87
60,514
60,176
59,793
59,317
58,691
57,847
56,708
55,194
53,223
50,742
47,671
43,867
39,276
33,943
28,047
21,961
16,06
10,605
5,929
2,481
0,503
-0,026
0,489
1,092
0,907
-0,553
-3,782
-9,329
-17,372
-27,493
-38,378
-47,698
-53,125
-52,657
-44,214
-25,577
5,443
48,592
100,579
157,687
215,847
275,559
342,11
414,631
487,288
547,235
574,036
557,413
496,84
398,305
277,828
149,635
26,337
-76,48
-148,613
-186,071
-192,84
-183,054
-170,011
-161,248
-157,942
-154,719
-148,51
-140,091
-131,68
-127,057
-127,495
-131,524
-137,53
-143,566
-147,863
-149,807
-149,182
-145,949
-140,664
-134,02
-126,606
-119,118
-112,221
-106,245
-101,327
-97,5
-94,59
-92,438
-90,927
-89,881
-89,127
-88,539
-88,008
-87,441
-86,763
-85,875
-84,664
-83,054
-80,998
-78,479
-75,5
-72,076
-68,226
-63,985
-59,399
-54,516
-49,38
-44,035
-38,523
-32,895
-27,206
-21,513
-15,868
-10,313
-4,875
0,429
5,59
10,605
15,475
20,208
24,812
29,296
33,663
37,915
42,055
46,085
50,013
53,842
57,578
61,225
64,785
68,258
71,646
74,946
78,158
81,278
84,302
87,23
90,059
92,79
95,42
97,951
100,38
102,707
104,929
107,045
109,052
110,945
112,721
114,374
115,901
117,296
118,555
119,672
120,644
121,466
122,135
122,645
122,994
123,178
123,195
123,043
122,719
122,222
121,551
120,704
119,683
118,488
117,119
115,577
113,865
111,984
109,936
107,725
105,354
102,827
100,147
97,32
94,352
91,247
88,013
84,656
81,184
77,604
73,923
70,15
66,291
62,353
58,344
54,271
50,139
45,956
41,726
37,455
33,148
28,81
24,446
20,059
15,653
11,232
6,799
2,357
-2,092
-6,543
-10,994
-15,443
-19,886
-24,32
-28,743
-33,152
-37,544
-41,917
-46,267
-50,593
-54,891
-59,158
-63,392
-67,59
-71,746
-75,858
-79,92
-83,927
-87,875
-91,756
-95,565
-99,295
-102,938
-106,487
-109,934
-113,272
-116,49
-119,582
-122,537
-125,348
-128,006
-130,503
-132,83
-134,98
-136,945
-138,719
-140,295
-141,666
-142,828
-143,773
-144,497
-144,997
-145,266
-145,303
-145,105
-144,669
-143,994
-143,081
-141,931
-140,544
-138,923
-137,073
-134,998
-132,704
-130,198
-127,486
-124,578
-121,482
-118,21
-114,772
-111,178
-107,442
-103,576
-99,592
-95,503
-91,322
-87,063
-82,738
-78,361
-73,945
-69,505
-65,053
-60,604
-56,171
-51,767
-47,407
-43,102
-38,865
-34,708
-30,643
-26,68
-22,827
-19,095
-15,491
-12,019
-8,687
-5,499
-2,459
0,431
3,169
5,754
8,183
10,456
12,575
14,541
16,359
18,033
19,566
20,964
22,232
23,377
24,408
25,332
26,154
26,882
27,527
28,099
28,616
29,088
29,523
29,925
30,296
30,634
30,937
31,196
31,394
31,517
31,551
31,489
31,335
31,084
30,731
30,262
29,661
28,925
28,066
27,102
26,056
24,961
23,855
22,797
21,865
21,123
20,623
20,397
20,453
20,805
21,473
22,481
23,861
25,611
27,709
30,117
32,787
35,655
38,639
41,625
44,477
47,065
49,289
51,076
52,375
53,156
53,38
52,968
51,835
49,914
47,148
43,586
39,306
34,226
28,315
21,562
13,932
5,658
-3,03
-12,275
-22,128
-32,235
-42,195
-51,186
-58,268
-63,389
-66,526
-67,148
-65,161
-61,019
-55,515
-50,59
-48,291
-49,206
-53,814
-62,815
-76,004
-92,417
-110,128
-125,413
-134,375
-134,28
-122,361
-95,957
-53,248
4,92
74,688
151,302
229,181
307,479
389,686
472,762
551,19
613,696
640,181
622,214
558,115
450,705
318,872
178,965
47,525
-53,922
-118,44
-146,02
-144,319
-132,633
-121,96
-116,564
-116,161
-113,271
-105,987
-96,662
-87,468
-82,281
-82,091
-85,103
-89,942
-94,876
-98,055
-98,815
-96,978
-92,542
-86,156
-78,584
-70,369
-62,205
-54,869
-48,805
-44,299
-41,501
-40,282
-40,522
-42,144
-44,985
-48,887
-53,717
-59,311
-65,523
-72,209
-79,193
-86,333
-93,501
-100,577
-107,463
-114,027
-120,149
-125,752
-130,772
-135,165
-138,898
-141,922
-144,195
-145,722
-146,518
-146,625
-146,098
-144,951
-143,198
-140,847
-137,896
-134,379
-130,335
-125,782
-120,745
-115,256
-109,352
-103,098
-96,575
-89,828
-82,892
-75,795
-68,546
-61,182
-53,743
-46,268
-38,804
-31,382
-24,021
-16,751
-9,595
-2,562
4,345
11,146
17,88
24,564
31,201
37,795
44,335
50,816
57,24
63,604
69,903
76,13
82,276
88,333
94,295
100,146
105,865
111,422
116,776
121,899
126,768
131,362
135,668
139,674
143,364
146,733
149,776
152,49
154,87
156,912
158,612
159,968
160,984
161,663
162,015
162,047
161,765
161,178
160,292
159,116
157,658
155,926
153,928
151,674
149,173
146,439
143,487
140,33
136,985
133,467
129,794
125,981
122,048
118,01
113,884
109,687
105,435
101,146
96,834
92,514
88,201
83,908
79,647
75,429
71,266
67,165
63,137
59,188
55,324
51,553
47,878
44,304
40,833
37,468
34,209
31,056
28,009
25,064
22,219
19,47
16,81
14,235
11,736
9,307
6,938
4,621
2,346
0,104
-2,116
-4,325
-6,531
-8,745
-10,976
-13,233
-15,524
-17,858
-20,241
-22,679
-25,179
-27,745
-30,381
-33,091
-35,878
-38,742
-41,684
-44,704
-47,8
-50,969
-54,209
-57,514
-60,88
-64,301
-67,769
-71,276
-74,814
-78,373
-81,942
-85,508
-89,06
-92,585
-96,068
-99,496
-102,856
-106,132
-109,312
-112,381
-115,326
-118,134
-120,792
-123,287
-125,608
-127,743
-129,682
-131,415
-132,934
-134,23
-135,296
-136,128
-136,721
-137,069
-137,171
-137,023
-136,624
-135,973
-135,07
-133,916
-132,513
-130,864
-128,975
-126,851
-124,5
-121,93
-119,149
-116,167
-112,994
-109,641
-106,118
-102,438
-98,611
-94,651
-90,57
-86,381
-82,098
-77,734
-73,301
-68,811
-64,278
-59,711
-55,121
-50,518
-45,911
-41,309
-36,723
-32,163
-27,639
-23,161
-18,738
-14,381
-10,1
-5,904
-1,801
2,204
6,106
9,9
13,583
17,151
20,599
23,925
27,124
30,195
33,128
35,919
38,562
41,053
43,392
45,58
47,611
49,481
51,184
52,71
54,05
55,194
56,121
56,817
57,275
57,486
57,463
57,223
56,785
56,17
55,396
54,467
53,398
52,203
50,888
49,473
47,975
46,419
44,861
43,35
41,932
40,655
39,531
38,548
37,675
36,849
36,035
35,243
34,489
33,813
33,237
32,705
32,208
31,785
31,338
30,732
29,68
27,678
24,49
20,18
14,847
8,692
1,954
-5,271
-12,413
-18,324
-22,31
-24,088
-23,747
-21,979
-19,275
-15,646
-11,825
-9,472
-10,045
-14,89
-24,652
-38,594
-56,113
-77,335
-101,583
-126,899
-150,689
-169,613
-180,714
-182,526
-173,57
-151,29
-113,356
-60,323
4,316
76,241
150,515
227,251
311,356
401,173
490,205
565,653
607,446
605,075
558,624
474,027
364,81
244,057
121,039
8,05
-81,379
-140,787
-166,853
-164,61
-147,764
-122,053
-94,144
-70,65
-51,734
-44,762
-51,425
-64,547
-80,366
-91,566
-95,107
-96,238
-97,193
-99,356
-103,079
-105,443
-105,387
-103,617
-100,697
-97,587
-94,959
-92,947
-91,643
-91,14
-91,353
-92,048
-93,07
-94,311
-95,644
-96,986
-98,244
-99,304
-100,106
-100,631
-100,829
-100,649
-100,078
-99,135
-97,905
-96,511
-95,051
-93,614
-92,268
-91,083
-90,129
-89,466
-89,143
-89,199
-89,66
-90,552
-91,913
-93,769
-96,12
-98,94
-102,148
-105,647
-109,361
-113,213
-117,144
-121,093
-124,985
-128,753
-132,343
-135,692
-138,741
-141,417
-143,619
-145,264
-146,284
-146,616
-146,247
-145,169
-143,365
-140,831
-137,565
-133,569
-128,873
-123,509
-117,505
-110,911
-103,791
-96,228
-88,343
-80,239
-72,008
-63,749
-55,527
-47,404
-39,448
-31,706
-24,216
-17,014
-10,119
-3,542
2,696
8,599
14,18
19,466
24,508
29,344
34
38,504
42,872
47,112
51,234
55,237
59,107
62,835
66,409
69,813
73,04
76,075
78,896
81,482
83,805
85,843
87,583
89,017
90,139
90,95
91,452
91,654
91,57
91,215
90,601
89,741
88,645
87,327
85,803
84,087
82,195
80,141
77,94
75,604
73,145
70,577
67,911
65,156
62,323
59,421
56,461
53,455
50,412
47,345
44,262
41,175
38,092
35,022
31,974
28,954
25,969
23,024
20,124
17,274
14,478
11,739
9,061
6,445
3,895
1,412
-1,001
-3,344
-5,615
-7,814
-9,941
-11,994
-13,976
-15,887
-17,729
-19,503
-21,212
-22,859
-24,448
-25,981
-27,465
-28,902
-30,298
-31,658
-32,987
-34,291
-35,574
-36,843
-38,102
-39,357
-40,612
-41,872
-43,144
-44,43
-45,736
-47,066
-48,425
-49,816
-51,243
-52,71
-54,22
-55,774
-57,375
-59,023
-60,719
-62,462
-64,25
-66,082
-67,954
-69,863
-71,803
-73,77
-75,756
-77,755
-79,759
-81,759
-83,748
-85,715
-87,651
-89,545
-91,388
-93,168
-94,874
-96,496
-98,021
-99,438
-100,737
-101,904
-102,928
-103,799
-104,506
-105,038
-105,384
-105,537
-105,486
-105,226
-104,75
-104,052
-103,128
-101,975
-100,591
-98,975
-97,128
-95,052
-92,748
-90,221
-87,475
-84,514
-81,345
-77,972
-74,404
-70,647
-66,711
-62,603
-58,336
-53,918
-49,363
-44,683
-39,891
-35
-30,021
-24,967
-19,852
-14,687
-9,486
-4,261
0,978
6,221
11,453
16,666
21,848
26,994
32,102
37,166
42,177
47,125
51,998
56,782
61,465
66,028
70,449
74,704
78,775
82,648
86,319
89,777
93,012
96,01
98,754
101,239
103,484
105,506
107,328
108,983
110,503
111,941
113,374
114,863
116,456
118,192
120,094
122,197
124,552
127,203
130,19
133,529
137,201
141,186
145,459
149,971
154,669
159,462
164,218
168,835
173,236
177,343
181,082
184,348
186,998
188,913
190,008
190,21
189,468
187,726
184,926
181,044
176,102
170,134
163,147
155,192
146,406
137,054
127,61
118,62
110,563
103,954
99,411
97,268
97,459
99,555
102,434
104,825
105,815
104,395
99,523
90,938
79,312
66,127
54,19
46,881
47,141
58,151
83,436
124,276
179,011
245,495
319,885
399,989
488,55
584,601
681,408
768,223
827,301
843,319
812,772
737,716
626,597
495,793
358,201
229,156
127,588
60,669
29,719
27,827
37,128
47,227
53,578
55,452
58,845
65,086
71,771
76,899
77,086
71,502
61,997
50,307
38,53
28,626
21,334
16,863
15,188
15,776
17,974
21,183
24,631
27,54
29,507
30,374
30,129
28,943
26,948
24,226
20,933
17,236
13,264
9,129
4,9
0,632
-3,582
-7,631
-11,401
-14,804
-17,801
-20,374
-22,519
-24,243
-25,556
-26,479
-27,052
-27,309
-27,288
-27,027
-26,559
-25,924
-25,169
-24,343
-23,493
-22,655
-21,846
-21,075
-20,344
-19,649
-18,985
-18,339
-17,696
-17,042
-16,365
-15,657
-14,91
-14,115
-13,258
-12,33
-11,318
-10,214
-9,01
-7,702
-6,284
-4,756
-3,115
-1,363
0,499
2,468
4,543
6,724
9,006
11,388
13,865
16,432
19,083
21,81
24,605
27,458
30,356
33,288
36,24
39,199
42,151
45,08
47,97
50,807
53,574
56,255
58,834
61,296
63,624
65,803
67,819
69,659
71,308
72,756
73,991
75,002
75,782
76,322
76,617
76,66
76,448
75,978
75,25
74,264
73,021
71,524
69,779
67,791
65,567
63,117
60,449
57,576
54,508
51,259
47,842
44,271
40,56
36,724
32,778
28,738
24,618
20,434
16,2
11,931
7,641
3,342
-0,951
-5,228
-9,477
-13,687
-17,849
-21,955
-25,997
-29,969
-33,864
-37,679
-41,41
-45,055
-48,612
-52,082
-55,465
-58,763
-61,979
-65,117
-68,18
-71,173
-74,103
-76,975
-79,795
-82,57
-85,308
-88,014
-90,697
-93,364
-96,02
-98,673
-101,33
-103,997
-106,679
-109,382
-112,111
-114,87
-117,664
-120,495
-123,366
-126,28
-129,238
-132,24
-135,287
-138,378
-141,512
-144,686
-147,897
-151,142
-154,416
-157,715
-161,034
-164,365
-167,703
-171,041
-174,372
-177,688
-180,982
-184,247
-187,474
-190,656
-193,784
-196,85
-199,848
-202,768
-205,604
-208,347
-210,99
-213,526
-215,947
-218,246
-220,417
-222,451
-224,342
-226,085
-227,673
-229,102
-230,365
-231,459
-232,381
-233,127
-233,695
-234,083
-234,29
-234,316
-234,159
-233,821
-233,303
-232,606
-231,732
-230,683
-229,463
-228,074
-226,521
-224,807
-222,936
-220,914
-218,745
-216,435
-213,99
-211,417
-208,722
-205,914
-203
-199,989
-196,889
-193,71
-190,459
-187,146
-183,779
-180,367
-176,916
-173,434
-169,926
-166,399
-162,859
-159,31
-155,756
-152,204
-148,655
-145,116
-141,589
-138,076
-134,58
-131,1
-127,636
-124,187
-120,752
-117,329
-113,916
-110,51
-107,106
-103,704
-100,298
-96,885
-93,455
-89,996
-86,499
-82,958
-79,371
-75,737
-72,062
-68,35
-64,612
-60,869
-57,138
-53,434
-49,77
-46,145
-42,565
-39,037
-35,574
-32,195
-28,915
-25,727
-22,62
-19,58
-16,579
-13,584
-10,547
-7,394
-4,052
-0,471
3,387
7,535
11,981
16,743
21,847
27,315
33,163
39,372
45,904
52,723
59,768
66,962
74,199
81,328
88,197
94,684
100,699
106,174
111,053
115,259
118,69
121,241
122,823
123,373
122,863
121,294
118,673
115,019
110,393
104,883
98,598
91,658
84,094
75,86
67,038
57,822
48,6
40,033
32,728
27,112
23,732
23,092
25,223
29,929
36,377
42,891
48,027
50,648
49,542
44,141
35,008
23,104
10,601
1,339
-1,156
6,59
28,571
66,077
117,015
179,409
249,783
325,673
410,159
502,692
596,301
680,558
737,628
750,834
715,841
634,555
515,626
377,969
237,752
112,199
20,996
-30,806
-46,284
-36,538
-21,915
-12,968
-12,243
-17,53
-21,138
-21,087
-19,686
-19,185
-22,602
-30,158
-39,81
-50,08
-59,42
-66,516
-71,052
-72,963
-72,401
-69,996
-66,413
-62,205
-58,007
-54,413
-51,724
-50,087
-49,514
-49,857
-50,993
-52,821
-55,184
-57,924
-60,904
-64
-67,115
-70,165
-73,038
-75,614
-77,782
-79,458
-80,602
-81,194
-81,227
-80,709
-79,653
-78,091
-76,068
-73,628
-70,816
-67,68
-64,264
-60,62
-56,804
-52,868
-48,865
-44,832
-40,792
-36,763
-32,754
-28,771
-24,818
-20,893
-16,991
-13,112
-9,258
-5,429
-1,632
2,133
5,865
9,563
13,224
16,844
20,42
23,945
27,413
30,817
34,148
37,4
40,564
43,634
46,604
49,469
52,226
54,87
57,399
59,809
62,097
64,261
66,298
68,205
69,98
71,621
73,126
74,493
75,722
76,812
77,764
78,577
79,253
79,794
80,202
80,479
80,629
80,655
80,561
80,351
80,031
79,605
79,079
78,458
77,75
76,959
76,094
75,159
74,162
73,109
72,006
70,859
69,675
68,458
67,215
65,952
64,674
63,386
62,094
60,803
59,517
58,24
56,977
55,73
54,502
53,296
52,114
50,956
49,824
48,718
47,638
46,583
45,553
44,547
43,562
42,596
41,647
40,713
39,79
38,877
37,969
37,066
36,165
35,262
34,358
33,449
32,533
31,61
30,678
29,735
28,781
27,813
26,831
25,835
24,824
23,797
22,755
21,698
20,627
19,541
18,442
17,331
16,209
15,077
13,938
12,794
11,645
10,496
9,348
8,203
7,063
5,931
4,809
3,696
2,596
1,507
0,431
-0,633
-1,684
-2,724
-3,753
-4,773
-5,784
-6,789
-7,791
-8,79
-9,791
-10,795
-11,808
-12,832
-13,871
-14,929
-16,011
-17,121
-18,263
-19,444
-20,668
-21,941
-23,268
-24,656
-26,11
-27,637
-29,242
-30,931
-32,708
-34,578
-36,547
-38,618
-40,794
-43,081
-45,48
-47,996
-50,631
-53,386
-56,263
-59,264
-62,388
-65,635
-69,004
-72,493
-76,1
-79,821
-83,654
-87,594
-91,636
-95,775
-100,006
-104,32
-108,712
-113,171
-117,69
-122,258
-126,866
-131,501
-136,155
-140,814
-145,469
-150,106
-154,714
-159,28
-163,791
-168,232
-172,59
-176,849
-180,993
-185,008
-188,88
-192,593
-196,135
-199,493
-202,653
-205,608
-208,345
-210,855
-213,129
-215,156
-216,928
-218,435
-219,67
-220,626
-221,297
-221,679
-221,768
-221,565
-221,073
-220,293
-219,226
-217,87
-216,229
-214,308
-212,116
-209,663
-206,964
-204,034
-200,895
-197,578
-194,114
-190,531
-186,856
-183,104
-179,288
-175,418
-171,507
-167,567
-163,606
-159,622
-155,609
-151,567
-147,487
-143,365
-139,181
-134,889
-130,443
-125,797
-120,91
-115,764
-110,354
-104,675
-98,73
-92,534
-86,104
-79,482
-72,719
-65,856
-58,937
-52,001
-45,115
-38,4
-31,989
-26,024
-20,635
-15,903
-11,904
-8,724
-6,444
-5,125
-4,817
-5,506
-7,183
-9,93
-13,737
-18,491
-23,953
-29,617
-34,937
-39,477
-42,72
-44,069
-43,265
-40,356
-35,726
-30,483
-25,776
-22,442
-21,56
-24,087
-30,082
-38,835
-48,923
-57,647
-61,921
-58,987
-45,357
-17,425
25,257
80,438
145,846
216,979
293,313
379,755
473,385
567,948
651,237
700,343
703,301
656,748
562,735
438,624
301,161
166,229
54,682
-21,416
-58,098
-59,117
-40,59
-19,167
-4,037
1,876
3,137
5,868
11,217
17,787
22,944
24,042
21,529
17,278
12,99
10,637
11,088
14,284
20,149
28,196
37,721
48,11
58,638
68,545
77,416
85,059
91,359
96,355
100,071
102,519
103,816
104,112
103,532
102,187
100,166
97,555
94,484
91,106
87,545
83,893
80,22
76,589
73,087
69,823
66,895
64,361
62,249
60,565
59,306
58,461
58,006
57,897
58,076
58,482
59,077
59,847
60,785
61,885
63,12
64,438
65,792
67,151
68,488
69,785
71,019
72,17
73,232
74,21
75,118
75,974
76,766
77,47
78,049
78,45
78,64
78,61
78,341
77,835
77,111
76,194
75,138
74,006
72,848
71,705
70,61
69,585
68,676
67,938
67,431
67,248
67,466
68,148
69,37
71,167
73,531
76,433
79,799
83,518
87,498
91,64
95,844
100,037
104,137
108,058
111,726
115,036
117,883
120,164
121,76
122,584
122,6
121,792
120,186
117,858
114,874
111,318
107,29
102,856
98,074
93
87,673
82,147
76,492
70,777
65,088
59,508
54,095
48,896
43,931
39,181
34,619
30,204
25,877
21,602
17,36
13,127
8,897
4,664
0,419
-3,849
-8,162
-12,558
-17,08
-21,764
-26,627
-31,657
-36,822
-42,083
-47,387
-52,683
-57,925
-63,05
-68,006
-72,759
-77,277
-81,53
-85,479
-89,059
-92,189
-94,797
-96,819
-98,211
-98,944
-98,991
-98,348
-97,021
-95,028
-92,409
-89,201
-85,428
-81,109
-76,269
-70,943
-65,184
-59,069
-52,687
-46,134
-39,517
-32,947
-26,527
-20,35
-14,495
-9,03
-4,005
0,536
4,553
8,001
10,842
13,039
14,555
15,388
15,569
15,155
14,234
12,921
11,322
9,548
7,715
5,926
4,269
2,817
1,621
0,734
0,218
0,141
0,579
1,581
3,155
5,283
7,919
10,985
14,405
18,088
21,916
25,794
29,646
33,41
37,055
40,544
43,829
46,858
49,569
51,915
53,876
55,443
56,619
57,428
57,903
58,093
58,07
57,889
57,588
57,195
56,72
56,171
55,571
54,938
54,292
53,652
53,031
52,442
51,9
51,407
50,962
50,554
50,159
49,764
49,364
48,958
48,55
48,149
47,756
47,38
47,03
46,713
46,435
46,198
45,998
45,835
45,711
45,629
45,591
45,6
45,655
45,753
45,895
46,078
46,299
46,551
46,825
47,111
47,401
47,689
47,966
48,226
48,463
48,672
48,853
49,006
49,127
49,209
49,238
49,199
49,081
48,874
48,572
48,173
47,677
47,093
46,442
45,744
45,016
44,275
43,526
42,778
42,05
41,366
40,762
40,272
39,92
39,736
39,735
39,905
40,226
40,653
41,115
41,569
41,956
42,203
42,257
42,044
41,475
40,505
39,025
36,856
33,957
30,371
26,264
22,057
18,132
14,744
12,332
11,383
11,978
13,959
16,678
18,829
19,369
17,606
12,684
3,979
-8,268
-23,189
-38,862
-52,198
-60,29
-60,502
-49,994
-26,14
11,379
60,388
117,816
178,785
241,126
307,792
378,466
450,058
515,921
558,391
561,668
516,52
416,808
274,655
113,323
-41,516
-158,929
-224,164
-240,621
-222,471
-195,282
-175,296
-166,451
-166,054
-164,301
-157,664
-148,508
-139,733
-135,972
-138,46
-145,25
-154,728
-164,856
-173,678
-180,557
-185,25
-187,701
-188,492
-188,237
-187,375
-186,484
-186,162
-186,689
-188,164
-190,569
-193,661
-197,244
-201,183
-205,305
-209,455
-213,512
-217,371
-220,951
-224,194
-227,049
-229,471
-231,431
-232,919
-233,936
-234,495
-234,622
-234,356
-233,734
-232,798
-231,588
-230,13
-228,46
-226,615
-224,627
-222,532
-220,358
-218,107
-215,79
-213,415
-210,987
-208,519
-206,018
-203,476
-200,884
-198,229
-195,499
-192,695
-189,817
-186,857
-183,826
-180,737
-177,607
-174,473
-171,36
-168,273
-165,211
-162,156
-159,078
-155,962
-152,797
-149,56
-146,244
-142,826
-139,28
-135,595
-131,731
-127,636
-123,257
-118,522
-113,373
-107,787
-101,743
-95,232
-88,279
-80,901
-73,122
-64,995
-56,557
-47,855
-38,948
-29,886
-20,749
-11,647
-2,682
6,039
14,414
22,373
29,839
36,731
43,011
48,646
53,616
57,937
61,616
64,656
67,088
68,948
70,292
71,211
71,78
72,064
72,131
72,032
71,827
71,593
71,374
71,2
71,095
71,062
71,111
71,258
71,496
71,805
72,16
72,512
72,831
73,103
73,31
73,442
73,485
73,415
73,224
72,919
72,504
71,987
71,375
70,67
69,883
69,04
68,164
67,284
66,421
65,585
64,789
64,041
63,349
62,722
62,164
61,669
61,237
60,87
60,567
60,331
60,159
60,045
59,985
59,97
59,997
60,06
60,156
60,28
60,428
60,597
60,784
60,989
61,207
61,433
61,664
61,892
62,112
62,319
62,507
62,669
62,799
62,893
62,945
62,95
62,904
62,8
62,634
62,4
62,095
61,712
61,249
60,702
60,068
59,343
58,527
57,618
56,615
55,517
54,323
53,036
51,655
50,182
48,619
46,969
45,237
43,426
41,541
39,589
37,575
35,506
33,388
31,229
29,036
26,817
24,579
22,33
20,078
17,832
15,6
13,39
11,212
9,073
6,981
4,946
2,973
1,072
-0,752
-2,49
-4,138
-5,688
-7,136
-8,477
-9,706
-10,82
-11,815
-12,69
-13,442
-14,072
-14,577
-14,96
-15,219
-15,357
-15,375
-15,274
-15,057
-14,726
-14,284
-13,733
-13,077
-12,319
-11,463
-10,514
-9,475
-8,353
-7,152
-5,878
-4,537
-3,134
-1,676
-0,167
1,385
2,974
4,595
6,239
7,903
9,579
11,259
12,935
14,599
16,244
17,865
19,454
21,003
22,502
23,943
25,318
26,623
27,852
28,999
30,055
31,015
31,878
32,646
33,323
33,909
34,401
34,797
35,103
35,328
35,483
35,578
35,61
35,577
35,478
35,318
35,101
34,834
34,511
34,124
33,679
33,188
32,673
32,171
31,691
31,242
30,816
30,387
29,974
29,62
29,37
29,284
29,378
29,614
30,007
30,63
31,473
32,463
33,342
33,643
33,125
31,801
29,771
27,162
24,021
20,461
17,118
15,194
15,664
18,942
24,835
32,784
42,513
53,589
64,716
73,691
78,022
75,937
66,943
51,245
29,006
1,091
-30,33
-61,86
-88,916
-106,998
-112,825
-103,443
-75,864
-30,086
30,724
103,064
181,63
264,582
355,045
449,651
540,368
613,847
650,362
640,308
584,299
489,534
371,861
244,67
119,706
10,911
-72,519
-124,718
-146,674
-149,728
-144,474
-137,91
-132,737
-124,72
-111,817
-96,264
-80,856
-69,585
-64,408
-64,265
-67,643
-73,049
-78,794
-83,422
-86,144
-86,553
-84,744
-81,336
-76,894
-71,864
-66,855
-62,506
-59,157
-56,968
-55,888
-55,661
-56,106
-57,088
-58,431
-59,964
-61,533
-63,011
-64,302
-65,35
-66,104
-66,517
-66,56
-66,218
-65,497
-64,416
-63,013
-61,334
-59,42
-57,319
-55,071
-52,715
-50,299
-47,873
-45,486
-43,188
-41,013
-38,985
-37,123
-35,441
-33,939
-32,618
-31,462
-30,452
-29,574
-28,811
-28,151
-27,58
-27,081
-26,634
-26,225
-25,838
-25,459
-25,073
-24,659
-24,203
-23,695
-23,128
-22,499
-21,808
-21,052
-20,234
-19,368
-18,463
-17,532
-16,584
-15,614
-14,619
-13,598
-12,553
-11,487
-10,397
-9,262
-8,059
-6,771
-5,382
-3,879
-2,239
-0,411
1,646
3,963
6,564
9,444
12,599
16,031
19,733
23,684
27,84
32,119
36,431
40,707
44,874
48,866
52,598
55,942
58,79
61,062
62,689
63,63
63,843
63,266
61,862
59,635
56,623
52,917
48,623
43,824
38,611
33,084
27,363
21,614
15,976
10,549
5,423
0,671
-3,621
-7,339
-10,399
-12,768
-14,441
-15,459
-15,878
-15,734
-15,08
-13,995
-12,57
-10,932
-9,177
-7,365
-5,548
-3,776
-2,113
-0,646
0,562
1,482
2,1
2,422
2,459
2,211
1,699
0,966
0,062
-0,948
-2,019
-3,134
-4,278
-5,433
-6,58
-7,684
-8,728
-9,708
-10,622
-11,468
-12,243
-12,94
-13,565
-14,134
-14,667
-15,185
-15,701
-16,215
-16,73
-17,245
-17,763
-18,282
-18,799
-19,305
-19,793
-20,261
-20,708
-21,132
-21,53
-21,896
-22,223
-22,505
-22,738
-22,921
-23,051
-23,126
-23,148
-23,117
-23,038
-22,914
-22,751
-22,552
-22,322
-22,065
-21,786
-21,492
-21,186
-20,876
-20,566
-20,263
-19,972
-19,701
-19,453
-19,236
-19,053
-18,91
-18,811
-18,759
-18,76
-18,815
-18,928
-19,101
-19,336
-19,635
-19,998
-20,428
-20,925
-21,489
-22,122
-22,822
-23,591
-24,426
-25,328
-26,295
-27,325
-28,416
-29,566
-30,772
-32,032
-33,344
-34,705
-36,114
-37,568
-39,066
-40,606
-42,187
-43,807
-45,463
-47,154
-48,879
-50,635
-52,421
-54,236
-56,078
-57,948
-59,847
-61,774
-63,731
-65,72
-67,742
-69,8
-71,892
-74,016
-76,173
-78,36
-80,578
-82,825
-85,1
-87,4
-89,725
-92,077
-94,454
-96,857
-99,276
-101,699
-104,119
-106,53
-108,929
-111,317
-113,691
-116,051
-118,403
-120,76
-123,137
-125,542
-127,97
-130,404
-132,827
-135,23
-137,612
-139,97
-142,291
-144,543
-146,699
-148,732
-150,613
-152,305
-153,737
-154,815
-155,453
-155,575
-155,14
-154,128
-152,515
-150,273
-147,381
-143,829
-139,648
-134,896
-129,635
-123,923
-117,835
-111,46
-104,931
-98,433
-92,155
-86,283
-80,982
-76,395
-72,644
-69,876
-68,297
-67,99
-68,871
-70,693
-72,988
-75,282
-77,257
-78,529
-78,552
-77,066
-74,149
-70,304
-66,813
-64,98
-65,587
-69,336
-76,799
-87,831
-101,608
-116,413
-129,001
-135,725
-133,668
-120,255
-93,03
-50,441
7,622
80,05
162,323
247,102
329,515
405,679
472,805
531,573
577,804
603,739
602,855
567,351
495,236
391,358
265,906
134,504
14,785
-76,309
-132,362
-154,377
-149,665
-132,026
-106,536
-78,175
-53,839
-35,208
-29,946
-39,967
-57,626
-78,129
-93,661
-100,727
-104,18
-106
-107,889
-110,621
-111,372
-109,248
-104,938
-98,879
-92,225
-85,844
-79,765
-74,059
-68,839
-63,96
-59,313
-54,873
-50,56
-46,332
-42,218
-38,229
-34,386
-30,776
-27,479
-24,538
-21,97
-19,761
-17,893
-16,356
-15,154
-14,294
-13,767
-13,554
-13,631
-13,973
-14,551
-15,325
-16,222
-17,14
-17,979
-18,663
-19,141
-19,385
-19,372
-19,08
-18,489
-17,595
-16,404
-14,936
-13,214
-11,254
-9,078
-6,723
-4,245
-1,715
0,806
3,284
5,705
8,055
10,325
12,501
14,566
16,526
18,383
20,139
21,802
23,369
24,842
26,236
27,571
28,862
30,115
31,307
32,401
33,375
34,219
34,924
35,501
35,946
36,268
36,504
36,682
36,835
37,005
37,212
37,477
37,844
38,35
39,054
40,034
41,33
42,974
44,998
47,409
50,223
53,447
57,035
60,935
65,099
69,459
73,968
78,576
83,197
87,763
92,199
96,426
100,401
104,095
107,461
110,465
113,059
115,194
116,879
118,131
118,964
119,404
119,458
119,15
118,543
117,689
116,625
115,376
113,92
112,238
110,336
108,227
105,949
103,541
101,006
98,356
95,618
92,83
90,06
87,35
84,696
82,106
79,602
77,24
75,131
73,364
71,996
71,075
70,623
70,674
71,283
72,471
74,217
76,465
79,114
82,097
85,386
88,933
92,685
96,547
100,375
104,064
107,544
110,735
113,57
115,949
117,743
118,883
119,347
119,156
118,375
117,037
115,148
112,743
109,864
106,579
102,989
99,141
95,059
90,797
86,415
82,02
77,753
73,699
69,901
66,381
63,132
60,171
57,525
55,19
53,155
51,401
49,901
48,675
47,755
47,132
46,782
46,641
46,614
46,645
46,704
46,758
46,792
46,78
46,692
46,525
46,285
45,969
45,571
45,057
44,386
43,551
42,558
41,435
40,229
38,965
37,658
36,33
34,996
33,67
32,367
31,083
29,81
28,552
27,316
26,125
25
23,95
22,977
22,073
21,225
20,428
19,679
18,974
18,308
17,677
17,077
16,508
15,973
15,466
14,972
14,471
13,943
13,372
12,748
12,062
11,313
10,498
9,614
8,657
7,632
6,549
5,425
4,281
3,142
2,037
0,998
0,072
-0,705
-1,305
-1,705
-1,895
-1,878
-1,662
-1,26
-0,686
0,043
0,89
1,803
2,719
3,565
4,277
4,789
5,021
4,91
4,407
3,468
2,074
0,225
-2,074
-4,812
-7,991
-11,636
-15,754
-20,327
-25,311
-30,632
-36,233
-42,089
-48,165
-54,433
-60,868
-67,411
-74,093
-81,043
-88,292
-95,763
-103,19
-110,089
-116,076
-120,899
-124,149
-125,377
-124,475
-121,601
-117,598
-113,853
-111,233
-110,685
-113,599
-120,725
-132,169
-146,405
-159,153
-167,359
-169,875
-166,859
-160,695
-149,163
-127,242
-89,902
-30,501
50,828
150,548
262,819
373,026
466,234
526,591
538,726
500,844
417,882
299,296
163,772
26,069
-98,433
-191,18
-246,439
-264,698
-254,259
-233,84
-213,733
-197,924
-186,458
-172,902
-156,054
-138,657
-123,019
-112,68
-108,413
-108,322
-110,704
-113,535
-114,956
-114,273
-111,27
-106,014
-99,056
-91,014
-82,436
-73,976
-66,304
-59,766
-54,48
-50,437
-47,47
-45,422
-44,173
-43,544
-43,324
-43,355
-43,513
-43,689
-43,807
-43,781
-43,528
-42,993
-42,144
-40,97
-39,464
-37,617
-35,419
-32,873
-29,992
-26,797
-23,317
-19,569
-15,58
-11,392
-7,053
-2,624
1,843
6,3
10,697
15,001
19,181
23,2
27,037
30,664
34,035
37,097
39,787
42,014
43,714
44,838
45,33
45,179
44,382
42,954
40,942
38,385
35,313
31,76
27,754
23,329
18,571
13,582
8,478
3,421
-1,454
-6,021
-10,134
-13,682
-16,587
-18,791
-20,284
-21,059
-21,086
-20,336
-18,794
-16,455
-13,368
-9,617
-5,298
-0,548
4,499
9,708
14,913
19,96
24,732
29,139
33,117
36,62
39,573
41,894
43,525
44,421
44,579
44,031
42,815
40,994
38,651
35,875
32,784
29,504
26,126
22,719
19,34
16,03
12,85
9,878
7,165
4,751
2,658
0,889
-0,556
-1,682
-2,517
-3,101
-3,487
-3,739
-3,9
-3,993
-4,038
-4,05
-4,046
-4,058
-4,101
-4,183
-4,311
-4,488
-4,719
-5,011
-5,36
-5,752
-6,171
-6,596
-7,017
-7,434
-7,846
-8,256
-8,668
-9,083
-9,51
-9,96
-10,441
-10,958
-11,518
-12,123
-12,779
-13,495
-14,28
-15,141
-16,084
-17,111
-18,225
-19,428
-20,718
-22,092
-23,546
-25,075
-26,671
-28,33
-30,045
-31,81
-33,618
-35,46
-37,327
-39,212
-41,105
-42,996
-44,875
-46,731
-48,555
-50,336
-52,065
-53,732
-55,327
-56,842
-58,267
-59,595
-60,817
-61,927
-62,917
-63,784
-64,52
-65,123
-65,59
-65,919
-66,107
-66,155
-66,064
-65,834
-65,469
-64,971
-64,346
-63,598
-62,733
-61,759
-60,684
-59,514
-58,26
-56,929
-55,531
-54,076
-52,573
-51,031
-49,461
-47,873
-46,276
-44,681
-43,096
-41,53
-39,992
-38,49
-37,029
-35,617
-34,259
-32,958
-31,719
-30,547
-29,445
-28,416
-27,463
-26,59
-25,799
-25,093
-24,472
-23,934
-23,477
-23,096
-22,788
-22,548
-22,372
-22,255
-22,193
-22,182
-22,224
-22,317
-22,458
-22,639
-22,848
-23,078
-23,324
-23,584
-23,857
-24,145
-24,45
-24,783
-25,161
-25,6
-26,108
-26,682
-27,305
-27,963
-28,648
-29,356
-30,091
-30,847
-31,613
-32,378
-33,137
-33,876
-34,573
-35,182
-35,625
-35,833
-35,757
-35,37
-34,675
-33,666
-32,334
-30,675
-28,679
-26,36
-23,744
-20,846
-17,687
-14,304
-10,76
-7,159
-3,643
-0,354
2,581
5,041
6,921
8,108
8,508
8,011
6,442
3,732
-0,064
-4,76
-9,922
-15,075
-19,86
-23,816
-26,354
-27,198
-26,444
-24,7
-23,414
-24,046
-27,588
-35,005
-47,018
-63,56
-83,757
-105,534
-125,134
-138,592
-142,688
-134,042
-109,684
-68,18
-9,205
64,652
146,911
232,483
317,444
398,297
474,519
539,953
584,987
603,116
586,324
535,134
456,467
354,318
239,895
125,609
23,302
-51,301
-92,389
-104,916
-99,9
-91,287
-87,207
-87,907
-89,282
-88,824
-87,005
-86,062
-89,217
-97,211
-108,494
-121,397
-133,939
-144,269
-151,629
-155,684
-156,266
-153,828
-148,972
-142,201
-134,209
-125,742
-117,241
-108,991
-101,18
-93,769
-86,736
-80,109
-73,849
-67,918
-62,329
-57,109
-52,327
-48,086
-44,45
-41,445
-39,078
-37,326
-36,161
-35,549
-35,432
-35,763
-36,51
-37,641
-39,133
-40,965
-43,11
-45,527
-48,157
-50,916
-53,701
-56,419
-58,983
-61,319
-63,362
-65,064
-66,4
-67,35
-67,903
-68,046
-67,763
-67,035
-65,837
-64,156
-61,983
-59,338
-56,271
-52,838
-49,099
-45,122
-40,981
-36,731
-32,413
-28,054
-23,664
-19,256
-14,843
-10,445
-6,088
-1,801
2,38
6,435
10,358
14,153
17,836
21,433
24,979
28,501
32,018
35,536
39,046
42,538
46,001
49,424
52,795
56,109
59,368
62,57
65,714
68,79
71,781
74,664
77,413
80,002
82,41
84,619
86,621
88,412
89,988
91,351
92,507
93,458
94,205
94,751
95,096
95,243
95,199
94,974
94,579
94,027
93,331
92,506
91,565
90,521
89,388
88,177
86,9
85,568
84,193
82,789
81,369
79,946
78,534
77,145
75,792
74,487
73,24
72,06
70,956
69,933
69
68,16
67,418
66,778
66,242
65,813
65,492
65,28
65,175
65,178
65,285
65,494
65,801
66,204
66,699
67,28
67,943
68,684
69,498
70,379
71,321
72,319
73,365
74,454
75,579
76,732
77,907
79,097
80,297
81,501
82,703
83,898
85,082
86,25
87,397
88,52
89,614
90,675
91,7
92,686
93,629
94,528
95,378
96,178
96,925
97,616
98,247
98,816
99,32
99,754
100,116
100,402
100,608
100,732
100,771
100,724
100,587
100,36
100,039
99,624
99,112
98,502
97,793
96,983
96,071
95,056
93,94
92,721
91,402
89,981
88,461
86,844
85,129
83,32
81,419
79,427
77,347
75,183
72,939
70,619
68,229
65,775
63,264
60,703
58,101
55,464
52,802
50,121
47,43
44,734
42,039
39,349
36,67
34,01
31,374
28,771
26,206
23,685
21,219
18,812
16,47
14,194
11,981
9,829
7,743
5,731
3,803
1,975
0,26
-1,332
-2,782
-4,081
-5,224
-6,216
-7,075
-7,82
-8,46
-8,997
-9,42
-9,722
-9,915
-10,015
-10,046
-10,043
-10,044
-10,095
-10,265
-10,608
-11,152
-11,907
-12,844
-13,922
-15,126
-16,448
-17,895
-19,476
-21,17
-22,948
-24,783
-26,62
-28,396
-30,024
-31,368
-32,314
-32,801
-32,795
-32,323
-31,44
-30,171
-28,539
-26,565
-24,25
-21,629
-18,749
-15,641
-12,371
-9,029
-5,735
-2,671
-0,005
2,155
3,733
4,707
5,094
4,885
4,075
2,662
0,594
-2,167
-5,645
-9,881
-14,868
-20,564
-26,935
-33,902
-41,359
-49,237
-57,453
-65,978
-74,908
-84,264
-93,926
-103,638
-112,949
-121,424
-128,746
-134,482
-138,042
-139,073
-137,622
-134,266
-130,088
-125,953
-122,703
-121,546
-123,473
-129,119
-137,131
-143,802
-147,007
-145,666
-140,304
-134,061
-122,789
-99,165
-58,797
5,535
90,28
186,156
291,017
395,385
492,207
574,907
623,839
627,041
578,549
479,757
351,253
214,207
88,864
-8,876
-78,486
-124,338
-155,433
-181,265
-203,832
-221,448
-229,561
-225,324
-210,597
-190,271
-170,662
-155,424
-145,373
-140,185
-138,615
-139,644
-142,525
-145,743
-147,66
-147,516
-145,121
-140,776
-135,138
-128,718
-121,955
-115,49
-109,971
-105,742
-102,912
-101,393
-100,962
-101,449
-102,696
-104,496
-106,611
-108,818
-110,937
-112,832
-114,402
-115,568
-116,266
-116,45
-116,101
-115,202
-113,741
-111,713
-109,114
-105,957
-102,29
-98,172
-93,669
-88,871
-83,856
-78,687
-73,435
-68,145
-62,827
-57,497
-52,17
-46,864
-41,626
-36,508
-31,544
-26,759
-22,158
-17,734
-13,495
-9,439
-5,565
-1,89
1,576
4,809
7,744
10,323
12,509
14,275
15,636
16,624
17,236
17,455
17,264
16,643
15,589
14,102
12,171
9,799
7,007
3,839
0,395
-3,219
-6,914
-10,601
-14,222
-17,726
-21,021
-24,01
-26,614
-28,758
-30,385
-31,433
-31,81
-31,445
-30,301
-28,38
-25,748
-22,482
-18,661
-14,388
-9,77
-4,93
-0,026
4,802
9,449
13,824
17,845
21,416
24,401
26,683
28,19
28,881
28,762
27,843
26,136
23,706
20,657
17,129
13,285
9,249
5,096
0,895
-3,298
-7,406
-11,322
-14,965
-18,287
-21,25
-23,828
-25,987
-27,687
-28,946
-29,835
-30,463
-30,947
-31,365
-31,758
-32,159
-32,603
-33,128
-33,781
-34,582
-35,534
-36,647
-37,94
-39,447
-41,209
-43,226
-45,462
-47,853
-50,337
-52,873
-55,437
-58,005
-60,548
-63,042
-65,469
-67,829
-70,131
-72,367
-74,524
-76,573
-78,486
-80,25
-81,868
-83,348
-84,699
-85,923
-87,019
-87,991
-88,845
-89,584
-90,204
-90,693
-91,038
-91,236
-91,284
-91,187
-90,947
-90,566
-90,045
-89,385
-88,589
-87,661
-86,604
-85,419
-84,108
-82,675
-81,125
-79,466
-77,706
-75,85
-73,906
-71,881
-69,781
-67,614
-65,387
-63,105
-60,773
-58,398
-55,984
-53,539
-51,067
-48,574
-46,064
-43,544
-41,019
-38,493
-35,972
-33,459
-30,96
-28,478
-26,016
-23,578
-21,168
-18,787
-16,438
-14,125
-11,85
-9,616
-7,424
-5,279
-3,183
-1,138
0,853
2,786
4,659
6,47
8,216
9,891
11,495
13,022
14,469
15,832
17,108
18,292
19,381
20,374
21,267
22,058
22,748
23,334
23,818
24,201
24,484
24,669
24,758
24,752
24,655
24,468
24,194
23,837
23,399
22,888
22,308
21,668
20,977
20,244
19,478
18,691
17,892
17,092
16,299
15,519
14,764
14,042
13,366
12,752
12,209
11,745
11,367
11,076
10,87
10,742
10,677
10,656
10,669
10,71
10,78
10,888
11,041
11,247
11,515
11,845
12,237
12,697
13,218
13,803
14,463
15,216
16,1
17,161
18,421
19,886
21,549
23,377
25,336
27,383
29,453
31,5
33,489
35,394
37,218
38,958
40,594
42,101
43,425
44,506
45,313
45,832
46,066
46,047
45,81
45,413
44,947
44,479
44,036
43,602
43,112
42,498
41,726
40,787
39,676
38,376
36,852
35,049
32,911
30,413
27,46
23,871
19,571
14,594
9,177
3,877
-0,746
-4,275
-6,176
-5,97
-3,647
0,609
6,014
11,015
14,289
14,698
11,04
2,849
-9,207
-24,012
-39,275
-51,227
-56,358
-50,896
-30,585
5,536
54,977
115,656
183,895
259,224
346,63
443,593
541,714
625,988
673,386
671,533
619,325
523,823
402,542
270,885
142,748
34,035
-45,126
-89,474
-101,963
-96,511
-85,899
-77,685
-73,587
-67,969
-57,624
-44,273
-30,919
-21,836
-18,929
-20,924
-26,066
-32,676
-39,129
-44,206
-47,25
-47,937
-46,445
-43,424
-39,501
-35,189
-31,078
-27,721
-25,403
-24,252
-24,212
-25,059
-26,624
-28,769
-31,325
-34,133
-37,061
-39,993
-42,837
-45,526
-47,972
-50,101
-51,866
-53,233
-54,197
-54,76
-54,937
-54,751
-54,235
-53,422
-52,347
-51,038
-49,53
-47,859
-46,067
-44,194
-42,28
-40,354
-38,432
-36,526
-34,638
-32,766
-30,903
-29,035
-27,147
-25,227
-23,267
-21,257
-19,191
-17,061
-14,856
-12,568
-10,189
-7,712
-5,134
-2,451
0,338
3,233
6,231
9,328
12,519
15,8
19,166
22,613
26,135
29,726
33,379
37,087
40,843
44,637
48,459
52,297
56,141
59,978
63,795
67,579
71,317
74,995
78,598
82,113
85,526
88,823
91,988
95,009
97,872
100,563
103,071
105,384
107,491
109,382
111,049
112,485
113,682
114,636
115,343
115,799
116,002
115,951
115,647
115,092
114,287
113,238
111,949
110,428
108,681
106,719
104,551
102,187
99,64
96,922
94,047
91,029
87,882
84,622
81,265
77,827
74,325
70,774
67,191
63,593
59,995
56,411
52,858
49,348
45,896
42,514
39,214
36,009
32,909
29,924
27,062
24,333
21,742
19,296
16,999
14,856
12,867
11,036
9,362
7,846
6,484
5,276
4,217
3,303
2,528
1,886
1,37
0,972
0,684
0,496
0,4
0,386
0,445
0,567
0,743
0,964
1,22
1,501
1,799
2,103
2,406
2,697
2,971
3,217
3,43
3,603
3,731
3,807
3,829
3,791
3,69
3,525
3,292
2,992
2,623
2,186
1,682
1,113
0,482
-0,209
-0,956
-1,756
-2,603
-3,496
-4,428
-5,397
-6,397
-7,426
-8,479
-9,551
-10,638
-11,735
-12,836
-13,938
-15,036
-16,125
-17,202
-18,261
-19,3
-20,317
-21,307
-22,269
-23,201
-24,101
-24,968
-25,801
-26,602
-27,369
-28,106
-28,813
-29,494
-30,152
-30,791
-31,415
-32,028
-32,635
-33,239
-33,844
-34,453
-35,069
-35,695
-36,333
-36,988
-37,662
-38,361
-39,09
-39,856
-40,667
-41,528
-42,447
-43,428
-44,477
-45,597
-46,792
-48,064
-49,413
-50,841
-52,352
-53,952
-55,646
-57,429
-59,297
-61,241
-63,245
-65,299
-67,389
-69,497
-71,608
-73,714
-75,811
-77,909
-80,016
-82,133
-84,252
-86,36
-88,439
-90,49
-92,511
-94,502
-96,471
-98,418
-100,353
-102,304
-104,289
-106,306
-108,345
-110,369
-112,338
-114,241
-116,067
-117,813
-119,476
-121,034
-122,465
-123,76
-124,9
-125,864
-126,615
-127,081
-127,205
-126,96
-126,325
-125,302
-123,895
-122,069
-119,801
-117,081
-113,905
-110,297
-106,277
-101,848
-97,028
-91,858
-86,405
-80,767
-75,031
-69,253
-63,495
-57,819
-52,306
-47,064
-42,181
-37,707
-33,677
-30,107
-27,014
-24,429
-22,365
-20,798
-19,688
-18,989
-18,698
-18,838
-19,424
-20,427
-21,777
-23,404
-25,269
-27,361
-29,677
-32,199
-34,903
-37,825
-41,082
-44,721
-48,733
-53,004
-57,218
-61,066
-64,238
-66,225
-66,483
-64,846
-61,319
-56,088
-50,052
-44,142
-39,344
-37,623
-39,547
-43,236
-47,195
-49,57
-51,497
-59,273
-75,02
-95,266
-109,265
-99,356
-55,173
24,398
131,212
250,367
370,792
481,758
573,483
636,262
656,931
630,116
556,311
441,017
300,908
151,996
12,772
-94,75
-162,057
-188,206
-182,252
-165,103
-148,239
-136,333
-129,128
-118,665
-103,609
-87,188
-72,063
-62,617
-60,008
-62,165
-67,427
-73,787
-79,042
-82,333
-83,372
-82,035
-78,904
-74,656
-69,777
-64,922
-60,818
-57,818
-56,049
-55,493
-55,882
-56,993
-58,681
-60,745
-62,993
-65,272
-67,45
-69,429
-71,145
-72,543
-73,574
-74,198
-74,4
-74,182
-73,563
-72,581
-71,283
-69,704
-67,884
-65,862
-63,666
-61,335
-58,91
-56,417
-53,89
-51,352
-48,813
-46,293
-43,808
-41,36
-38,949
-36,568
-34,208
-31,879
-29,597
-27,369
-25,213
-23,146
-21,193
-19,405
-17,827
-16,498
-15,452
-14,71
-14,274
-14,145
-14,316
-14,756
-15,428
-16,272
-17,21
-18,182
-19,122
-19,951
-20,584
-20,902
-20,783
-20,122
-18,818
-16,783
-13,965
-10,326
-5,853
-0,579
5,446
12,145
19,405
27,129
35,213
43,54
51,98
60,379
68,565
76,369
83,632
90,198
95,943
100,772
104,612
107,436
109,241
110,048
109,917
108,908
107,082
104,51
101,277
97,481
93,245
88,702
83,972
79,178
74,422
69,785
65,336
61,122
57,167
53,482
50,057
46,875
43,922
41,182
38,633
36,243
33,97
31,754
29,553
27,327
25,045
22,691
20,251
17,717
15,095
12,399
9,645
6,853
4,04
1,215
-1,606
-4,404
-7,156
-9,83
-12,398
-14,842
-17,149
-19,315
-21,342
-23,237
-25,015
-26,693
-28,294
-29,833
-31,315
-32,742
-34,101
-35,382
-36,582
-37,702
-38,755
-39,751
-40,692
-41,577
-42,399
-43,13
-43,742
-44,205
-44,474
-44,519
-44,329
-43,905
-43,282
-42,514
-41,646
-40,719
-39,754
-38,76
-37,751
-36,743
-35,755
-34,83
-34,015
-33,357
-32,927
-32,784
-32,966
-33,497
-34,349
-35,449
-36,722
-38,103
-39,54
-41,011
-42,492
-43,96
-45,392
-46,755
-48,009
-49,118
-50,019
-50,648
-50,951
-50,884
-50,451
-49,711
-48,735
-47,589
-46,321
-44,96
-43,525
-42,042
-40,529
-38,999
-37,462
-35,93
-34,43
-33,006
-31,702
-30,56
-29,59
-28,768
-28,051
-27,404
-26,802
-26,229
-25,673
-25,117
-24,553
-23,983
-23,418
-22,867
-22,327
-21,786
-21,221
-20,615
-19,961
-19,263
-18,537
-17,793
-17,04
-16,286
-15,541
-14,816
-14,115
-13,436
-12,771
-12,113
-11,457
-10,804
-10,154
-9,508
-8,866
-8,229
-7,595
-6,962
-6,325
-5,675
-5,005
-4,313
-3,599
-2,865
-2,118
-1,367
-0,626
0,078
0,726
1,296
1,777
2,161
2,441
2,603
2,638
2,539
2,311
1,968
1,524
0,992
0,399
-0,214
-0,79
-1,252
-1,531
-1,565
-1,3
-0,687
0,327
1,787
3,729
6,163
9,082
12,466
16,289
20,517
25,087
29,905
34,845
39,755
44,478
48,858
52,732
55,943
58,354
59,828
60,239
59,488
57,495
54,183
49,537
43,517
36,053
27,231
17,264
6,514
-4,419
-14,947
-24,622
-32,873
-39,085
-43,07
-44,892
-45,134
-45,112
-45,96
-48,497
-53,664
-62,021
-73,205
-86,307
-99,351
-109,073
-112,325
-106,084
-87,181
-53,267
-5,033
54,487
121,904
192,053
264,167
341,926
422,328
500,189
564,084
592,798
575,556
509,83
401,304
272,04
143,323
33,902
-41,573
-82,389
-95,14
-92,484
-86,807
-82,843
-80,685
-75,596
-64,572
-50,097
-35,676
-25,245
-20,888
-21,608
-25,708
-31,811
-38,5
-44,3
-48,373
-50,257
-49,865
-47,769
-44,591
-40,738
-36,765
-33,285
-30,598
-28,865
-28,095
-28,054
-28,561
-29,481
-30,609
-31,758
-32,802
-33,622
-34,149
-34,353
-34,176
-33,581
-32,574
-31,154
-29,348
-27,191
-24,706
-21,935
-18,942
-15,799
-12,596
-9,428
-6,36
-3,454
-0,764
1,683
3,867
5,793
7,509
9,052
10,456
11,754
12,966
14,116
15,248
16,402
17,624
18,972
20,487
22,198
24,14
26,319
28,729
31,35
34,136
37,044
40,048
43,124
46,26
49,447
52,669
55,912
59,168
62,415
65,64
68,828
71,962
75,038
78,056
81,024
83,959
86,878
89,789
92,694
95,593
98,479
101,347
104,187
106,986
109,732
112,416
115,029
117,565
120,015
122,369
124,616
126,742
128,735
130,584
132,278
133,808
135,167
136,348
137,346
138,159
138,785
139,221
139,462
139,507
139,35
138,99
138,423
137,647
136,66
135,461
134,049
132,427
130,595
128,556
126,315
123,874
121,241
118,42
115,419
112,244
108,903
105,404
101,758
97,972
94,056
90,022
85,88
81,64
77,313
72,912
68,446
63,927
59,367
54,776
50,167
45,552
40,944
36,354
31,796
27,283
22,827
18,443
14,142
9,937
5,839
1,86
-1,99
-5,702
-9,266
-12,674
-15,92
-18,996
-21,897
-24,619
-27,156
-29,507
-31,669
-33,641
-35,421
-37,011
-38,41
-39,622
-40,648
-41,492
-42,158
-42,649
-42,971
-43,13
-43,132
-42,985
-42,695
-42,272
-41,724
-41,061
-40,292
-39,428
-38,479
-37,455
-36,369
-35,228
-34,045
-32,829
-31,59
-30,336
-29,078
-27,823
-26,582
-25,362
-24,172
-23,019
-21,912
-20,859
-19,866
-18,939
-18,084
-17,305
-16,607
-15,993
-15,466
-15,027
-14,679
-14,424
-14,265
-14,205
-14,245
-14,387
-14,634
-14,986
-15,444
-16,006
-16,67
-17,432
-18,288
-19,237
-20,281
-21,421
-22,651
-23,965
-25,354
-26,808
-28,316
-29,857
-31,404
-32,93
-34,41
-35,825
-37,173
-38,445
-39,638
-40,745
-41,758
-42,676
-43,51
-44,267
-44,954
-45,584
-46,171
-46,754
-47,395
-48,154
-49,092
-50,25
-51,642
-53,281
-55,171
-57,303
-59,657
-62,198
-64,867
-67,621
-70,42
-73,213
-75,941
-78,509
-80,782
-82,626
-83,9
-84,485
-84,295
-83,255
-81,315
-78,466
-74,727
-70,146
-64,797
-58,742
-52,037
-44,765
-37,023
-28,952
-20,736
-12,572
-4,674
2,745
9,487
15,38
20,287
24,122
26,837
28,406
28,822
28,062
26,111
22,973
18,657
13,206
6,694
-0,769
-9,014
-17,865
-27,155
-36,739
-46,509
-56,406
-66,347
-76,29
-86,271
-96,174
-105,772
-114,748
-122,549
-128,659
-132,77
-134,433
-133,142
-128,925
-122,125
-113,443
-104,304
-95,809
-88,598
-83,762
-82,275
-83,998
-88,104
-92,837
-95,175
-92,523
-82,64
-62,364
-28,488
19,213
78,269
145,961
218,056
294,923
381,383
474,4
566,199
642,836
683,5
678,765
628,893
539,575
425,717
299,196
170,254
53,078
-42,495
-109,735
-148,073
-167,273
-176,905
-182,736
-185,53
-179,966
-163,531
-138,674
-110,275
-84,511
-64,722
-51,218
-43,98
-42,904
-47,288
-55,749
-65,971
-75,562
-83,303
-88,893
-92,053
-92,251
-89,35
-83,799
-76,747
-69,764
-63,76
-59,025
-55,762
-54,18
-54,422
-56,503
-60,091
-64,536
-69,392
-74,431
-79,5
-84,546
-89,473
-94,133
-98,44
-102,361
-105,852
-108,851
-111,296
-113,107
-114,236
-114,676
-114,44
-113,569
-112,12
-110,153
-107,725
-104,882
-101,671
-98,145
-94,368
-90,418
-86,357
-82,235
-78,089
-73,951
-69,847
-65,8
-61,817
-57,89
-54,009
-50,162
-46,343
-42,552
-38,787
-35,038
-31,292
-27,532
-23,745
-19,927
-16,074
-12,185
-8,259
-4,297
-0,303
3,71
7,734
11,76
15,782
19,797
23,799
27,779
31,729
35,642
39,508
43,322
47,076
50,764
54,377
57,909
61,352
64,702
67,951
71,093
74,12
77,024
79,8
82,443
84,947
87,308
89,52
91,58
93,483
95,226
96,804
98,213
99,447
100,506
101,388
102,093
102,624
102,984
103,175
103,204
103,076
102,798
102,374
101,806
101,1
100,261
99,299
98,229
97,06
95,801
94,458
93,038
91,548
89,989
88,357
86,637
84,815
82,886
80,851
78,724
76,514
74,23
71,883
69,482
67,052
64,616
62,199
59,816
57,483
55,224
53,079
51,107
49,363
47,88
46,673
45,744
45,096
44,725
44,615
44,73
45,005
45,374
45,78
46,175
46,511
46,735
46,775
46,542
45,962
44,981
43,566
41,69
39,324
36,447
33,058
29,196
24,942
20,383
15,599
10,663
5,655
0,653
-4,263
-9,01
-13,528
-17,773
-21,707
-25,285
-28,448
-31,136
-33,298
-34,923
-36,037
-36,683
-36,909
-36,767
-36,321
-35,627
-34,728
-33,653
-32,401
-30,964
-29,341
-27,551
-25,634
-23,655
-21,688
-19,795
-18,017
-16,37
-14,86
-13,48
-12,209
-11,036
-9,965
-9,015
-8,234
-7,681
-7,4
-7,42
-7,743
-8,341
-9,164
-10,15
-11,247
-12,422
-13,654
-14,938
-16,273
-17,658
-19,087
-20,541
-21,984
-23,366
-24,645
-25,789
-26,789
-27,655
-28,415
-29,108
-29,766
-30,408
-31,04
-31,656
-32,242
-32,785
-33,272
-33,697
-34,072
-34,423
-34,777
-35,148
-35,535
-35,923
-36,299
-36,649
-36,966
-37,256
-37,537
-37,842
-38,217
-38,711
-39,361
-40,18
-41,158
-42,262
-43,453
-44,704
-45,999
-47,321
-48,649
-49,944
-51,167
-52,265
-53,172
-53,797
-54,025
-53,741
-52,861
-51,34
-49,165
-46,346
-42,902
-38,843
-34,19
-28,977
-23,251
-17,071
-10,504
-3,627
3,459
10,612
17,665
24,453
30,845
36,755
42,095
46,765
50,667
53,705
55,819
57
57,229
56,461
54,689
51,916
48,178
43,61
38,28
32,155
25,324
17,978
10,409
3,132
-3,347
-8,692
-12,401
-13,916
-13,16
-10,337
-6,018
-1,271
2,741
4,846
3,932
-0,955
-8,63
-15,955
-21,485
-23,911
-23,58
-23,865
-20,536
-5,555
26,029
81,981
159,601
247,586
341,99
435,043
519,183
591,25
637,631
644,001
606,166
523,011
402,439
264,065
123,906
-1,187
-92,487
-145,646
-162,805
-153,069
-135,111
-118,974
-108,045
-101,787
-94,007
-83,542
-72,93
-64,348
-60,789
-62,488
-67,372
-73,828
-80,014
-84,342
-86,315
-85,761
-82,835
-78,189
-72,508
-66,362
-60,374
-55,131
-50,913
-47,835
-45,87
-44,825
-44,542
-44,895
-45,732
-46,903
-48,286
-49,76
-51,213
-52,562
-53,715
-54,606
-55,203
-55,479
-55,415
-55,007
-54,26
-53,191
-51,821
-50,154
-48,176
-45,892
-43,335
-40,572
-37,689
-34,759
-31,839
-28,965
-26,163
-23,473
-20,943
-18,616
-16,513
-14,66
-13,088
-11,86
-11,072
-10,787
-11,02
-11,747
-12,918
-14,49
-16,43
-18,703
-21,254
-24,007
-26,871
-29,752
-32,586
-35,301
-37,813
-40,012
-41,754
-42,931
-43,482
-43,385
-42,641
-41,258
-39,238
-36,601
-33,406
-29,727
-25,655
-21,284
-16,68
-11,911
-7,057
-2,206
2,531
7,062
11,331
15,302
18,951
22,261
25,217
27,812
30,076
32,046
33,767
35,29
36,644
37,852
38,942
39,941
40,883
41,795
42,686
43,56
44,417
45,259
46,089
46,904
47,687
48,419
49,078
49,643
50,1
50,444
50,667
50,766
50,741
50,593
50,328
49,956
49,485
48,919
48,264
47,522
46,703
45,814
44,864
43,858
42,804
41,705
40,565
39,386
38,17
36,916
35,623
34,291
32,917
31,503
30,049
28,555
27,022
25,452
23,845
22,203
20,527
18,818
17,076
15,302
13,495
11,658
9,792
7,896
5,975
4,029
2,06
0,072
-1,932
-3,95
-5,976
-8,007
-10,038
-12,065
-14,081
-16,082
-18,062
-20,014
-21,932
-23,811
-25,645
-27,428
-29,155
-30,821
-32,421
-33,952
-35,409
-36,791
-38,093
-39,314
-40,451
-41,504
-42,47
-43,35
-44,143
-44,85
-45,472
-46,01
-46,466
-46,844
-47,146
-47,376
-47,538
-47,635
-47,674
-47,659
-47,595
-47,489
-47,345
-47,172
-46,974
-46,76
-46,536
-46,307
-46,082
-45,865
-45,664
-45,482
-45,327
-45,202
-45,113
-45,063
-45,058
-45,099
-45,191
-45,336
-45,536
-45,793
-46,107
-46,479
-46,909
-47,397
-47,942
-48,543
-49,2
-49,91
-50,672
-51,485
-52,347
-53,255
-54,207
-55,2
-56,232
-57,299
-58,399
-59,529
-60,686
-61,868
-63,073
-64,3
-65,547
-66,815
-68,104
-69,412
-70,74
-72,088
-73,455
-74,84
-76,241
-77,656
-79,086
-80,529
-81,987
-83,461
-84,949
-86,45
-87,965
-89,491
-91,023
-92,555
-94,081
-95,597
-97,105
-98,607
-100,105
-101,603
-103,101
-104,599
-106,088
-107,559
-108,989
-110,357
-111,64
-112,817
-113,87
-114,785
-115,542
-116,12
-116,489
-116,621
-116,489
-116,069
-115,337
-114,288
-112,939
-111,33
-109,526
-107,592
-105,578
-103,544
-101,566
-99,728
-98,124
-96,854
-95,983
-95,608
-95,9
-96,932
-98,669
-100,948
-103,362
-105,472
-106,94
-107,347
-106,166
-103,179
-98,494
-92,574
-86,575
-81,683
-78,717
-78,633
-82,308
-89,794
-100,304
-112,297
-122,969
-129,081
-127,775
-115,702
-89,378
-48,072
6,226
71,243
142,865
219,894
305,465
396,721
486,934
564,109
609,308
612,056
570,084
487,722
379,29
257,939
136,461
29,823
-52,804
-105,936
-130,591
-137,656
-137,098
-135,11
-133,542
-127,902
-115,731
-98,932
-81,031
-66,575
-57,737
-53,834
-53,492
-55,259
-57,897
-60,319
-61,401
-60,443
-57,432
-52,801
-47,186
-41,145
-35,143
-29,712
-25,408
-22,599
-21,386
-21,681
-23,268
-25,938
-29,532
-33,857
-38,675
-43,765
-48,892
-53,869
-58,588
-62,964
-66,92
-70,391
-73,301
-75,576
-77,19
-78,143
-78,447
-78,133
-77,229
-75,776
-73,851
-71,56
-69,019
-66,334
-63,574
-60,785
-58,004
-55,267
-52,609
-50,062
-47,634
-45,326
-43,141
-41,082
-39,159
-37,369
-35,697
-34,114
-32,587
-31,093
-29,618
-28,153
-26,694
-25,233
-23,769
-22,301
-20,838
-19,385
-17,945
-16,519
-15,103
-13,698
-12,307
-10,934
-9,581
-8,25
-6,94
-5,65
-4,379
-3,128
-1,895
-0,679
0,521
1,705
2,871
4,015
5,135
6,228
7,292
8,325
9,324
10,287
11,208
12,08
12,894
13,641
14,316
14,917
15,445
15,906
16,31
16,667
16,99
17,286
17,559
17,803
18,003
18,146
18,213
18,195
18,092
17,901
17,618
17,235
16,739
16,108
15,315
14,324
13,097
11,603
9,831
7,784
5,489
2,985
0,32
-2,468
-5,351
-8,307
-11,315
-14,349
-17,387
-20,392
-23,325
-26,132
-28,75
-31,13
-33,238
-35,067
-36,637
-37,985
-39,167
-40,229
-41,205
-42,126
-43,01
-43,876
-44,738
-45,617
-46,531
-47,513
-48,609
-49,855
-51,278
-52,882
-54,654
-56,563
-58,563
-60,614
-62,68
-64,735
-66,76
-68,74
-70,667
-72,532
-74,331
-76,051
-77,671
-79,172
-80,535
-81,753
-82,828
-83,767
-84,587
-85,304
-85,931
-86,481
-86,959
-87,37
-87,715
-87,994
-88,202
-88,339
-88,41
-88,42
-88,376
-88,283
-88,146
-87,967
-87,749
-87,493
-87,201
-86,875
-86,517
-86,131
-85,721
-85,294
-84,856
-84,412
-83,967
-83,528
-83,095
-82,674
-82,267
-81,875
-81,5
-81,143
-80,806
-80,489
-80,193
-79,918
-79,663
-79,427
-79,209
-79,006
-78,816
-78,634
-78,458
-78,283
-78,104
-77,918
-77,719
-77,503
-77,264
-76,998
-76,701
-76,369
-75,996
-75,579
-75,115
-74,599
-74,03
-73,403
-72,717
-71,968
-71,155
-70,277
-69,333
-68,323
-67,246
-66,104
-64,896
-63,626
-62,295
-60,905
-59,461
-57,965
-56,422
-54,837
-53,215
-51,562
-49,884
-48,19
-46,486
-44,781
-43,085
-41,406
-39,752
-38,132
-36,555
-35,027
-33,553
-32,139
-30,789
-29,509
-28,306
-27,185
-26,152
-25,212
-24,369
-23,625
-22,984
-22,441
-21,994
-21,638
-21,374
-21,207
-21,144
-21,187
-21,341
-21,606
-21,981
-22,456
-23,016
-23,635
-24,288
-24,949
-25,597
-26,218
-26,797
-27,316
-27,746
-28,056
-28,212
-28,186
-27,957
-27,493
-26,788
-25,867
-24,774
-23,58
-22,351
-21,117
-19,918
-18,819
-17,884
-17,198
-16,856
-16,9
-17,431
-18,623
-20,518
-23,056
-26,019
-28,894
-31,2
-32,631
-32,736
-31,049
-27,557
-22,477
-16,579
-11,391
-8,13
-7,63
-10,847
-18,316
-29,584
-43,575
-57,99
-69,262
-74,143
-69,487
-51,968
-18,956
29,181
89,369
157,925
229,347
302,956
382,633
465,086
545,054
611,042
641,55
627,302
565,661
458,393
325,71
185,587
56,499
-36,874
-87,219
-95,811
-72,629
-41,04
-14,797
0,889
6,726
11,763
19,448
28,189
35,859
38,486
35,314
28,539
19,899
11,402
4,634
-0,029
-2,411
-2,556
-1,034
1,514
4,567
7,562
10,003
11,7
12,608
12,781
12,446
11,82
11,065
10,371
9,898
9,74
9,994
10,741
12,044
13,999
16,676
20,088
24,229
29,053
34,471
40,384
46,65
53,084
59,534
65,862
71,941
77,676
82,965
87,687
91,731
94,983
97,343
98,764
99,228
98,74
97,362
95,176
92,301
88,901
85,109
81,034
76,788
72,459
68,141
63,961
60,038
56,499
53,492
51,123
49,472
48,605
48,543
49,287
50,823
53,109
56,123
59,856
64,3
69,44
75,247
81,658
88,592
95,955
103,613
111,445
119,347
127,222
134,998
142,605
149,965
156,992
163,582
169,624
175,005
179,629
183,421
186,327
188,314
189,38
189,561
188,897
187,429
185,188
182,185
178,452
174,052
169,079
163,66
157,917
151,982
145,979
140,022
134,232
128,709
123,517
118,692
114,26
110,244
106,693
103,669
101,207
99,309
97,942
97,047
96,569
96,449
96,613
96,979
97,449
97,939
98,403
98,814
99,149
99,382
99,464
99,336
98,963
98,331
97,439
96,303
94,927
93,328
91,536
89,601
87,582
85,525
83,454
81,375
79,298
77,235
75,207
73,237
71,334
69,499
67,736
66,046
64,433
62,896
61,422
59,99
58,573
57,154
55,725
54,284
52,829
51,357
49,865
48,354
46,832
45,302
43,767
42,228
40,684
39,138
37,595
36,064
34,551
33,061
31,6
30,17
28,777
27,424
26,112
24,844
23,62
22,442
21,312
20,234
19,214
18,255
17,361
16,537
15,788
15,119
14,534
14,037
13,632
13,321
13,109
12,997
12,989
13,086
13,291
13,605
14,03
14,568
15,218
15,982
16,859
17,85
18,953
20,168
21,491
22,922
24,457
26,093
27,825
29,649
31,558
33,546
35,606
37,731
39,912
42,143
44,416
46,721
49,051
51,398
53,752
56,106
58,451
60,776
63,074
65,335
67,552
69,718
71,828
73,875
75,853
77,757
79,581
81,324
82,98
84,543
86,01
87,377
88,646
89,823
90,911
91,907
92,809
93,61
94,304
94,884
95,333
95,631
95,757
95,694
95,432
94,975
94,316
93,451
92,368
91,051
89,503
87,74
85,783
83,657
81,399
79,048
76,672
74,362
72,193
70,227
68,507
67,053
65,897
65,079
64,637
64,6
64,975
65,731
66,839
68,264
69,945
71,809
73,739
75,581
77,207
78,519
79,438
79,909
79,864
79,202
77,823
75,643
72,605
68,695
63,925
58,294
51,809
44,502
36,442
27,731
18,493
8,775
-1,47
-12,157
-23,063
-33,832
-43,861
-52,611
-59,764
-64,85
-67,3
-67,06
-64,372
-59,886
-55,058
-51,035
-48,456
-48,376
-51,676
-58,081
-66,663
-75,601
-81,71
-82,219
-74,829
-56,235
-23,201
24,464
84,408
153,65
227,267
304,609
389,671
479,667
567,944
642,223
682,636
678,8
629,287
538,507
421,152
291,126
161,9
49,84
-34,365
-84,958
-104,125
-104,477
-97,516
-90,478
-85,532
-78,056
-65,932
-51,363
-37,404
-28,326
-26,035
-29,3
-36,369
-45,386
-54,44
-62,053
-67,407
-70,103
-70,288
-68,613
-65,737
-62,228
-58,755
-55,947
-54,112
-53,387
-53,714
-54,86
-56,653
-58,953
-61,58
-64,366
-67,18
-69,902
-72,442
-74,726
-76,653
-78,139
-79,132
-79,596
-79,528
-78,933
-77,828
-76,24
-74,209
-71,777
-68,987
-65,876
-62,486
-58,865
-55,069
-51,157
-47,19
-43,211
-39,256
-35,353
-31,519
-27,766
-24,101
-20,522
-17,025
-13,611
-10,282
-7,039
-3,886
-0,821
2,16
5,062
7,889
10,649
13,345
15,982
18,564
21,089
23,557
25,97
28,326
30,634
32,897
35,116
37,293
39,429
41,522
43,566
45,553
47,467
49,291
51,014
52,622
54,111
55,476
56,712
57,818
58,789
59,626
60,343
60,953
61,474
61,926
62,336
62,74
63,189
63,73
64,401
65,237
66,265
67,497
68,938
70,581
72,407
74,384
76,46
78,569
80,637
82,584
84,322
85,751
86,752
87,207
87,012
86,07
84,294
81,624
78,021
73,467
67,974
61,575
54,335
46,35
37,732
28,6
19,09
9,349
-0,459
-10,151
-19,566
-28,551
-36,961
-44,68
-51,615
-57,69
-62,865
-67,128
-70,488
-72,995
-74,717
-75,725
-76,107
-75,964
-75,412
-74,591
-73,626
-72,622
-71,687
-70,904
-70,345
-70,074
-70,127
-70,519
-71,253
-72,312
-73,663
-75,282
-77,129
-79,155
-81,304
-83,504
-85,699
-87,846
-89,904
-91,839
-93,616
-95,21
-96,614
-97,835
-98,884
-99,778
-100,532
-101,161
-101,692
-102,153
-102,565
-102,947
-103,298
-103,62
-103,919
-104,203
-104,492
-104,792
-105,092
-105,378
-105,631
-105,838
-105,986
-106,055
-106,005
-105,818
-105,491
-105,045
-104,529
-103,977
-103,407
-102,834
-102,259
-101,695
-101,173
-100,714
-100,338
-100,068
-99,927
-99,956
-100,217
-100,743
-101,538
-102,58
-103,813
-105,195
-106,71
-108,336
-110,059
-111,863
-113,719
-115,614
-117,544
-119,493
-121,444
-123,36
-125,181
-126,878
-128,441
-129,881
-131,23
-132,513
-133,732
-134,899
-136,023
-137,11
-138,165
-139,185
-140,148
-141,048
-141,882
-142,659
-143,397
-144,102
-144,765
-145,375
-145,911
-146,354
-146,693
-146,912
-146,992
-146,921
-146,69
-146,297
-145,748
-145,038
-144,16
-143,107
-141,875
-140,468
-138,891
-137,152
-135,264
-133,241
-131,112
-128,904
-126,642
-124,344
-122,019
-119,681
-117,347
-115,038
-112,777
-110,566
-108,397
-106,253
-104,117
-101,963
-99,76
-97,457
-94,987
-92,287
-89,314
-86,044
-82,461
-78,549
-74,275
-69,601
-64,508
-59,01
-53,144
-46,966
-40,535
-33,924
-27,228
-20,56
-14,064
-7,877
-2,108
3,15
7,837
11,92
15,323
17,929
19,648
20,383
20,133
19,042
17,101
14,173
10,178
4,998
-1,275
-8,2
-15,623
-23,745
-32,31
-40,778
-48,414
-53,932
-56,76
-57,34
-55,604
-51,112
-44,253
-35,73
-26,891
-20,378
-17,566
-18,248
-22,947
-32,189
-45,206
-60,817
-76,615
-88,27
-92,675
-88,017
-71,349
-39,816
6,638
65,64
133,525
204,415
276,507
354,718
439,904
528,516
612,092
669,406
680,946
637,784
536,15
389,41
223,547
62,713
-66,115
-145,564
-177,136
-170,781
-145,941
-122,597
-108,641
-104,719
-105,68
-104,829
-101,198
-96,746
-94,259
-96,371
-102,593
-110,893
-119,295
-125,575
-128,748
-128,813
-125,839
-120,365
-113,096
-104,642
-95,789
-87,368
-79,837
-73,415
-68,204
-64,111
-61,067
-59,058
-57,99
-57,755
-58,268
-59,442
-61,215
-63,523
-66,258
-69,289
-72,482
-75,712
-78,885
-81,92
-84,729
-87,247
-89,421
-91,206
-92,575
-93,503
-93,981
-94,015
-93,625
-92,844
-91,719
-90,299
-88,639
-86,792
-84,804
-82,726
-80,609
-78,493
-76,408
-74,377
-72,42
-70,552
-68,789
-67,136
-65,589
-64,143
-62,792
-61,527
-60,341
-59,223
-58,16
-57,137
-56,134
-55,14
-54,149
-53,154
-52,155
-51,151
-50,14
-49,128
-48,122
-47,128
-46,15
-45,195
-44,263
-43,361
-42,495
-41,672
-40,899
-40,182
-39,527
-38,939
-38,422
-37,98
-37,616
-37,331
-37,128
-37,006
-36,968
-37,015
-37,148
-37,368
-37,676
-38,071
-38,552
-39,118
-39,766
-40,494
-41,297
-42,171
-43,112
-44,113
-45,169
-46,275
-47,424
-48,61
-49,826
-51,065
-52,321
-53,587
-54,854
-56,117
-57,367
-58,598
-59,803
-60,975
-62,108
-63,194
-64,229
-65,206
-66,119
-66,964
-67,735
-68,429
-69,041
-69,568
-70,007
-70,356
-70,613
-70,778
-70,849
-70,827
-70,713
-70,507
-70,21
-69,825
-69,352
-68,796
-68,156
-67,437
-66,64
-65,768
-64,825
-63,813
-62,736
-61,596
-60,398
-59,144
-57,838
-56,484
-55,085
-53,645
-52,167
-50,653
-49,108
-47,535
-45,935
-44,312
-42,667
-41,004
-39,325
-37,63
-35,922
-34,201
-32,47
-30,728
-28,977
-27,218
-25,451
-23,677
-21,896
-20,111
-18,321
-16,528
-14,732
-12,935
-11,136
-9,337
-7,538
-5,739
-3,941
-2,143
-0,346
1,45
3,244
5,035
6,824
8,609
10,391
12,166
13,936
15,698
17,45
19,191
20,919
22,632
24,328
26,003
27,655
29,282
30,881
32,45
33,986
35,488
36,953
38,38
39,765
41,108
42,405
43,655
44,854
46
47,089
48,12
49,088
49,992
50,828
51,595
52,29
52,911
53,457
53,928
54,322
54,64
54,884
55,053
55,15
55,176
55,134
55,026
54,854
54,62
54,326
53,978
53,579
53,134
52,648
52,126
51,573
50,997
50,403
49,799
49,189
48,579
47,978
47,396
46,848
46,343
45,887
45,485
45,138
44,844
44,597
44,387
44,195
44,007
43,807
43,587
43,345
43,077
42,776
42,434
42,035
41,567
41,036
40,447
39,813
39,161
38,522
37,944
37,499
37,247
37,234
37,495
38,043
38,881
40,018
41,459
43,21
45,277
47,649
50,301
53,205
56,308
59,541
62,808
65,981
68,933
71,567
73,801
75,584
76,883
77,659
77,879
77,51
76,497
74,783
72,324
69,076
65,028
60,221
54,709
48,562
41,871
34,686
27,042
19
10,548
1,617
-7,742
-17,38
-26,981
-35,978
-43,833
-50,153
-54,429
-56,167
-55,303
-52,047
-47,159
-42,089
-38,081
-36,093
-37,211
-42,143
-50,638
-61,753
-73,383
-82,283
-85,338
-79,446
-61,307
-28,079
20,162
80,607
149,904
222,902
298,56
379,767
462,362
540,066
601,423
626,744
608,314
544,669
438,01
306,462
165,851
32,729
-70,6
-136,439
-165,432
-165,653
-154,958
-144,409
-136,147
-127,728
-116,263
-102,06
-90,776
-89,394
-96,993
-110,675
-125,929
-136,616
-143,621
-148,241
-150,571
-152,343
-152,548
-150,325
-146,607
-141,854
-136,905
-132,725
-129,463
-127,081
-125,617
-124,919
-124,835
-125,271
-126,086
-127,134
-128,327
-129,597
-130,865
-132,054
-133,078
-133,83
-134,212
-134,157
-133,63
-132,622
-131,14
-129,2
-126,825
-124,045
-120,905
-117,446
-113,714
-109,752
-105,606
-101,325
-96,967
-92,586
-88,236
-83,957
-79,774
-75,702
-71,752
-67,926
-64,226
-60,649
-57,184
-53,828
-50,576
-47,424
-44,371
-41,411
-38,536
-35,74
-33,013
-30,35
-27,746
-25,194
-22,69
-20,23
-17,811
-15,428
-13,08
-10,761
-8,466
-6,19
-3,925
-1,666
0,593
2,859
5,137
7,431
9,745
12,083
14,444
16,832
19,244
21,68
24,138
26,615
29,109
31,615
34,129
36,647
39,163
41,671
44,166
46,642
49,091
51,508
53,885
56,216
58,494
60,714
62,868
64,952
66,959
68,883
70,72
72,463
74,109
75,652
77,087
78,413
79,625
80,722
81,704
82,571
83,323
83,963
84,495
84,921
85,246
85,475
85,614
85,667
85,643
85,547
85,386
85,17
84,904
84,598
84,259
83,896
83,515
83,125
82,732
82,345
81,968
81,611
81,278
80,977
80,714
80,496
80,328
80,216
80,163
80,176
80,256
80,406
80,627
80,921
81,288
81,729
82,243
82,828
83,485
84,21
85,002
85,857
86,773
87,745
88,77
89,844
90,961
92,119
93,313
94,54
95,795
97,076
98,378
99,698
101,033
102,377
103,727
105,079
106,43
107,776
109,114
110,443
111,76
113,065
114,357
115,636
116,9
118,146
119,375
120,585
121,774
122,94
124,083
125,203
126,3
127,377
128,437
129,48
130,507
131,517
132,511
133,487
134,443
135,373
136,276
137,149
137,993
138,816
139,618
140,396
141,143
141,847
142,501
143,095
143,618
144,053
144,388
144,615
144,738
144,772
144,723
144,59
144,364
144,031
143,584
143,032
142,38
141,635
140,809
139,912
138,969
138,022
137,096
136,196
135,313
134,415
133,486
132,527
131,539
130,529
129,494
128,413
127,276
126,078
124,797
123,402
121,838
120,027
117,921
115,504
112,772
109,739
106,407
102,762
98,801
94,523
89,933
85,044
79,865
74,405
68,709
62,85
56,926
51,059
45,344
39,843
34,627
29,759
25,308
21,346
17,933
15,125
12,989
11,594
10,995
11,224
12,263
14,053
16,518
19,553
23,071
26,989
31,205
35,614
40,125
44,648
49,089
53,349
57,292
60,776
63,692
65,968
67,581
68,535
68,842
68,537
67,655
66,245
64,365
62,061
59,335
56,18
52,601
48,626
44,346
39,864
35,234
30,471
25,558
20,466
15,173
9,691
3,958
-2,15
-8,621
-15,332
-21,97
-27,99
-32,924
-36,487
-38,28
-37,907
-35,379
-30,848
-24,983
-19,171
-14,495
-11,825
-12,212
-16,164
-23,255
-32,769
-42,925
-50,497
-52,575
-46,103
-27,34
4,913
48,611
101,85
161,492
226,122
300,401
385,17
474,018
555,697
610,314
619,478
578,596
490,343
364,753
221,78
77,184
-52,24
-146,253
-199,142
-212,845
-197,997
-176,346
-159,93
-152,549
-152,748
-152,294
-148,663
-143,949
-140,308
-141,069
-146,575
-154,622
-163,546
-171,517
-177,085
-179,913
-179,899
-177,242
-172,593
-166,635
-159,977
-153,263
-147,07
-141,708
-137,335
-134,008
-131,668
-130,289
-129,842
-130,249
-131,409
-133,238
-135,673
-138,645
-142,083
-145,879
-149,891
-154,005
-158,135
-162,201
-166,123
-169,81
-173,141
-176,012
-178,364
-180,154
-181,36
-181,976
-181,994
-181,43
-180,324
-178,731
-176,714
-174,328
-171,612
-168,608
-165,371
-161,967
-158,476
-154,968
-151,49
-148,081
-144,767
-141,575
-138,53
-135,646
-132,927
-130,366
-127,955
-125,685
-123,554
-121,55
-119,653
-117,833
-116,048
-114,265
-112,462
-110,623
-108,742
-106,809
-104,806
-102,721
-100,541
-98,265
-95,903
-93,47
-90,978
-88,449
-85,917
-83,426
-81,046
-78,831
-76,812
-75,011
-73,435
-72,101
-71,043
-70,297
-69,888
-69,825
-70,089
-70,651
-71,494
-72,576
-73,838
-75,194
-76,521
-77,72
-78,734
-79,519
-80,035
-80,216
-79,958
-79,157
-77,743
-75,677
-72,96
-69,6
-65,581
-60,914
-55,623
-49,759
-43,444
-36,734
-29,615
-22,129
-14,36
-6,54
