Nom
Date de naissance
Date d’enregistrement,2022-02-27 15:56:29 +0100
Classification,Rythme sinusal
Symptômes,
Version du logiciel,1.52
Appareil,"Watch5,1"
Fréquence d’échantillonnage,511,242 hertz


Dérivation,Dérivation DI
Unité,µV

77,68
81,118
83,98
86,158
87,54
88,022
87,559
86,17
83,923
80,937
77,307
73,1
68,371
63,165
57,537
51,546
45,247
38,703
32,01
25,298
18,729
12,472
6,625
1,223
-3,765
-8,432
-12,866
-17,15
-21,375
-25,639
-30,025
-34,607
-39,443
-44,577
-50,088
-56,087
-62,716
-70,132
-78,44
-87,713
-97,972
-109,18
-121,268
-134,142
-147,674
-161,711
-176,115
-190,753
-205,492
-220,22
-234,815
-249,151
-263,086
-276,481
-289,2
-301,102
-312,067
-322,004
-330,864
-338,633
-345,329
-350,993
-355,668
-359,422
-362,348
-364,535
-366,052
-366,95
-367,27
-367,05
-366,344
-365,254
-363,899
-362,394
-360,857
-359,377
-358,019
-356,866
-356,003
-355,472
-355,293
-355,472
-355,991
-356,928
-358,44
-360,552
-363,187
-366,077
-368,68
-370,505
-371,207
-370,28
-367,21
-361,916
-354,536
-345,818
-337,335
-330,377
-325,89
-324,951
-328,088
-334,764
-344,064
-353,927
-360,589
-360,655
-350,987
-327,835
-289,936
-239,284
-177,571
-107,883
-32,761
50,658
142,294
235,594
320,787
380,97
399,338
371,076
297,755
186,989
55,9
-80,885
-207,153
-302,968
-360,612
-380,106
-371,182
-354,31
-341,255
-336,261
-337,408
-336,052
-330,07
-321,737
-313,424
-309,004
-309,062
-311,535
-315,218
-318,628
-320,141
-319,296
-315,894
-309,91
-302,029
-292,994
-283,315
-273,615
-264,57
-256,55
-249,786
-244,42
-240,379
-237,613
-236,112
-235,778
-236,481
-238,111
-240,561
-243,725
-247,519
-251,827
-256,509
-261,455
-266,575
-271,79
-277,031
-282,206
-287,198
-291,893
-296,193
-300,026
-303,349
-306,137
-308,379
-310,083
-311,272
-311,979
-312,244
-312,096
-311,554
-310,634
-309,351
-307,738
-305,847
-303,734
-301,463
-299,083
-296,627
-294,122
-291,585
-289,024
-286,44
-283,827
-281,173
-278,474
-275,729
-272,941
-270,117
-267,255
-264,347
-261,382
-258,343
-255,223
-252,017
-248,725
-245,352
-241,904
-238,393
-234,832
-231,242
-227,637
-224,031
-220,436
-216,861
-213,318
-209,818
-206,374
-202,998
-199,701
-196,493
-193,382
-190,378
-187,486
-184,713
-182,063
-179,537
-177,139
-174,872
-172,738
-170,739
-168,878
-167,156
-165,572
-164,129
-162,825
-161,66
-160,632
-159,74
-158,981
-158,351
-157,848
-157,467
-157,203
-157,052
-157,009
-157,067
-157,221
-157,466
-157,796
-158,205
-158,688
-159,238
-159,849
-160,517
-161,235
-161,998
-162,799
-163,632
-164,492
-165,373
-166,269
-167,174
-168,084
-168,991
-169,89
-170,775
-171,639
-172,477
-173,281
-174,047
-174,767
-175,436
-176,048
-176,597
-177,079
-177,488
-177,82
-178,071
-178,236
-178,311
-178,292
-178,176
-177,959
-177,639
-177,212
-176,677
-176,03
-175,271
-174,399
-173,412
-172,31
-171,094
-169,764
-168,321
-166,765
-165,1
-163,328
-161,452
-159,476
-157,405
-155,244
-152,998
-150,673
-148,276
-145,812
-143,289
-140,713
-138,089
-135,426
-132,729
-130,004
-127,258
-124,498
-121,728
-118,955
-116,184
-113,422
-110,673
-107,942
-105,234
-102,553
-99,903
-97,288
-94,711
-92,176
-89,685
-87,242
-84,847
-82,502
-80,21
-77,969
-75,78
-73,642
-71,554
-69,514
-67,52
-65,57
-63,661
-61,792
-59,96
-58,162
-56,396
-54,66
-52,953
-51,273
-49,617
-47,986
-46,377
-44,79
-43,224
-41,679
-40,154
-38,649
-37,165
-35,7
-34,254
-32,829
-31,422
-30,034
-28,665
-27,315
-25,984
-24,672
-23,38
-22,111
-20,865
-19,643
-18,449
-17,283
-16,148
-15,047
-13,98
-12,949
-11,956
-11,001
-10,084
-9,203
-8,358
-7,546
-6,766
-6,014
-5,287
-4,582
-3,896
-3,228
-2,573
-1,929
-1,292
-0,657
-0,019
0,626
1,283
1,955
2,649
3,37
4,124
4,913
5,741
6,616
7,545
8,541
9,613
10,763
11,991
13,296
14,672
16,112
17,6
19,115
20,636
22,145
23,629
25,086
26,508
27,882
29,193
30,422
31,561
32,622
33,619
34,571
35,51
36,475
37,52
38,723
40,151
41,848
43,848
46,158
48,793
51,781
55,146
58,91
63,07
67,593
72,434
77,547
82,862
88,288
93,718
98,998
104,004
108,649
112,863
116,601
119,807
122,389
124,244
125,291
125,478
124,798
123,264
120,861
117,596
113,5
108,627
103,099
96,992
90,252
82,89
75,033
66,955
59,194
52,331
46,772
42,948
41,415
42,423
45,848
51,1
56,806
61,509
64,188
63,836
59,498
50,917
38,702
24,582
11,748
3,566
3,05
13,503
38,113
79,543
137,347
207,404
284,871
364,12
444,829
531,752
622,156
709,979
781,733
813,349
794,166
721,076
596,932
444,853
284,948
137,83
29,897
-31,902
-49,146
-31,945
-4,4
19,996
36,324
44,62
53,521
65,856
79,237
91,249
97,654
97,378
92,52
84,974
76,995
70,462
65,949
63,614
63,336
64,553
66,659
69,119
71,31
72,618
72,76
71,698
69,539
66,563
63,028
59,134
55,124
51,27
47,787
44,842
42,573
41,033
40,268
40,335
41,25
43,003
45,556
48,825
52,703
57,084
61,845
66,839
71,923
76,933
81,714
86,147
90,125
93,562
96,393
98,555
100,005
100,742
100,789
100,195
99,046
97,423
95,418
93,155
90,738
88,276
85,868
83,57
81,421
79,476
77,781
76,393
75,377
74,762
74,551
74,737
75,278
76,127
77,234
78,535
79,981
81,548
83,215
84,999
86,942
89,056
91,348
93,811
96,4
99,09
101,874
104,752
107,754
110,929
114,311
117,93
121,803
125,905
130,209
134,653
139,142
143,593
147,921
152,058
155,981
159,669
163,084
166,184
168,901
171,143
172,839
173,935
174,387
174,18
173,313
171,81
169,729
167,147
164,152
160,813
157,169
153,247
149,08
144,711
140,2
135,619
131,027
126,47
121,993
117,628
113,401
109,323
105,377
101,528
97,727
93,943
90,164
86,389
82,617
78,846
75,068
71,273
67,463
63,643
59,814
55,978
52,137
48,301
44,491
40,74
37,082
33,543
30,141
26,887
23,79
20,856
18,091
15,496
13,064
10,792
8,678
6,721
4,921
3,275
1,776
0,417
-0,813
-1,919
-2,909
-3,788
-4,562
-5,238
-5,82
-6,311
-6,713
-7,031
-7,27
-7,435
-7,532
-7,57
-7,552
-7,487
-7,38
-7,238
-7,065
-6,868
-6,648
-6,41
-6,157
-5,891
-5,614
-5,329
-5,037
-4,74
-4,439
-4,137
-3,835
-3,533
-3,234
-2,938
-2,647
-2,362
-2,083
-1,812
-1,549
-1,296
-1,051
-0,815
-0,587
-0,366
-0,149
0,064
0,278
0,494
0,714
0,942
1,178
1,425
1,682
1,952
2,234
2,528
2,834
3,153
3,482
3,822
4,172
4,53
4,895
5,266
5,641
6,02
6,4
6,781
7,161
7,541
7,918
8,291
8,658
9,017
9,365
9,698
10,013
10,307
10,575
10,815
11,023
11,196
11,334
11,433
11,494
11,516
11,501
11,449
11,362
11,242
11,093
10,917
10,719
10,501
10,268
10,025
9,778
9,532
9,295
9,072
8,87
8,695
8,553
8,454
8,404
8,409
8,476
8,616
8,838
9,16
9,59
10,134
10,794
11,57
12,457
13,451
14,537
15,696
16,911
18,166
19,452
20,767
22,104
23,45
24,791
26,102
27,371
28,599
29,79
30,951
32,102
33,272
34,506
35,874
37,421
39,179
41,168
43,382
45,819
48,482
51,37
54,49
57,843
61,406
65,155
69,066
73,08
77,126
81,106
84,881
88,35
91,444
94,104
96,303
98,025
99,234
99,911
100,028
99,523
98,35
96,469
93,837
90,477
86,424
81,713
76,434
70,636
64,328
57,569
50,336
42,529
34,2
25,466
16,569
8,033
0,359
-6,089
-10,76
-13,119
-13,093
-10,811
-6,927
-2,787
0,515
2,116
0,896
-3,869
-11,889
-22,373
-33,485
-41,976
-44,822
-39,133
-21,229
10,708
55,152
110,272
173,232
242,434
321,919
413,614
512,554
607,924
680,184
709,635
687,862
615,394
503,938
374,341
245,333
135,237
56,522
9,619
-10,952
-17,673
-22,694
-29,652
-37,316
-40,504
-35,474
-24,217
-11,176
-0,874
4,409
4,977
2,088
-2,855
-8,853
-14,769
-19,264
-21,611
-21,619
-19,526
-15,915
-11,313
-6,168
-1,063
3,409
6,918
9,346
10,752
11,32
11,183
10,446
9,251
7,747
6,059
4,278
2,477
0,715
-0,925
-2,345
-3,474
-4,27
-4,713
-4,807
-4,56
-3,989
-3,121
-1,999
-0,662
0,854
2,511
4,281
6,127
8,007
9,881
11,707
13,455
15,109
16,66
18,106
19,449
20,695
21,856
22,951
23,998
25,012
26,003
26,968
27,915
28,852
29,786
30,725
31,672
32,621
33,58
34,559
35,572
36,631
37,738
38,884
40,063
41,27
42,506
43,787
45,118
46,496
47,924
49,411
50,967
52,612
54,339
56,112
57,901
59,671
61,403
63,093
64,73
66,299
67,78
69,144
70,373
71,461
72,385
73,113
73,611
73,832
73,765
73,441
72,881
72,104
71,121
69,925
68,521
66,925
65,147
63,196
61,077
58,784
56,33
53,746
51,059
48,308
45,506
42,631
39,676
36,637
33,514
30,318
27,052
23,71
20,297
16,829
13,321
9,793
6,254
2,702
-0,862
-4,441
-8,025
-11,593
-15,129
-18,621
-22,055
-25,422
-28,71
-31,902
-34,99
-37,973
-40,849
-43,619
-46,28
-48,826
-51,253
-53,559
-55,744
-57,809
-59,756
-61,586
-63,301
-64,905
-66,404
-67,802
-69,106
-70,317
-71,441
-72,483
-73,446
-74,338
-75,165
-75,931
-76,641
-77,303
-77,923
-78,506
-79,058
-79,585
-80,092
-80,583
-81,065
-81,541
-82,016
-82,492
-82,973
-83,462
-83,96
-84,469
-84,992
-85,529
-86,081
-86,649
-87,233
-87,832
-88,445
-89,072
-89,711
-90,358
-91,011
-91,669
-92,326
-92,981
-93,629
-94,267
-94,892
-95,5
-96,088
-96,652
-97,19
-97,697
-98,172
-98,611
-99,011
-99,371
-99,688
-99,962
-100,191
-100,375
-100,515
-100,609
-100,658
-100,663
-100,624
-100,541
-100,415
-100,246
-100,035
-99,784
-99,494
-99,167
-98,805
-98,411
-97,988
-97,538
-97,066
-96,575
-96,068
-95,547
-95,015
-94,475
-93,927
-93,372
-92,81
-92,243
-91,669
-91,092
-90,513
-89,933
-89,352
-88,772
-88,191
-87,61
-87,027
-86,441
-85,845
-85,241
-84,626
-84,005
-83,385
-82,768
-82,151
-81,533
-80,909
-80,269
-79,601
-78,882
-78,087
-77,203
-76,223
-75,147
-73,986
-72,748
-71,436
-70,063
-68,633
-67,156
-65,652
-64,131
-62,614
-61,144
-59,774
-58,58
-57,642
-57,016
-56,732
-56,812
-57,25
-58,04
-59,164
-60,571
-62,208
-64,025
-65,966
-67,986
-70,029
-71,992
-73,744
-75,148
-76,054
-76,35
-75,958
-74,794
-72,809
-69,983
-66,324
-61,906
-56,823
-51,157
-44,992
-38,411
-31,523
-24,49
-17,522
-10,811
-4,555
1,051
5,826
9,554
12,056
13,219
12,969
11,285
8,163
3,581
-2,486
-9,997
-18,908
-29,192
-40,692
-53,176
-66,272
-79,343
-91,703
-102,76
-111,886
-118,437
-122,147
-123,111
-121,87
-119,761
-118,176
-118,165
-120,827
-127,04
-136,874
-149,615
-163,515
-175,226
-181,201
-178,457
-163,678
-134,055
-87,985
-24,749
53,193
139,655
228,443
313,102
390,644
462,719
527,789
583,392
620,274
621,305
575,987
477,062
329,711
157,776
-13,135
-153,742
-241,947
-277,373
-270,088
-240,243
-210,169
-188,775
-176,991
-170,219
-161,294
-149,524
-137,581
-128,17
-123,943
-124,546
-127,733
-131,563
-134,184
-134,276
-131,505
-125,989
-118,083
-108,486
-97,956
-87,119
-76,616
-67,037
-58,676
-51,658
-46,03
-41,696
-38,555
-36,532
-35,485
-35,265
-35,777
-36,915
-38,582
-40,695
-43,134
-45,788
-48,586
-51,449
-54,296
-57,04
-59,559
-61,738
-63,51
-64,828
-65,669
-66,031
-65,908
-65,316
-64,295
-62,89
-61,151
-59,118
-56,817
-54,27
-51,518
-48,608
-45,608
-42,589
-39,597
-36,664
-33,818
-31,073
-28,439
-25,922
-23,51
-21,186
-18,935
-16,747
-14,618
-12,546
-10,519
-8,522
-6,532
-4,524
-2,482
-0,395
1,745
3,942
6,197
8,511
10,872
13,268
15,69
18,128
20,577
23,032
25,483
27,922
30,336
32,715
35,048
37,326
39,534
41,662
43,698
45,633
47,458
49,168
50,754
52,208
53,519
54,679
55,685
56,525
57,19
57,669
57,949
58,026
57,905
57,587
57,072
56,362
55,462
54,377
53,122
51,7
50,107
48,342
46,399
44,284
42,016
39,609
37,081
34,439
31,68
28,809
25,837
22,768
19,603
16,336
12,953
9,466
5,916
2,337
-1,233
-4,767
-8,259
-11,695
-15,056
-18,325
-21,474
-24,485
-27,357
-30,07
-32,597
-34,909
-36,962
-38,751
-40,307
-41,654
-42,818
-43,819
-44,661
-45,355
-45,922
-46,373
-46,721
-46,967
-47,1
-47,118
-47,027
-46,842
-46,592
-46,286
-45,911
-45,463
-44,943
-44,356
-43,717
-43,032
-42,302
-41,538
-40,752
-39,972
-39,232
-38,569
-38,038
-37,67
-37,487
-37,514
-37,732
-38,112
-38,632
-39,244
-39,917
-40,652
-41,373
-42
-42,609
-43,222
-43,872
-44,626
-45,274
-45,581
-45,586
-45,308
-44,538
-43,187
-41,022
-37,756
-33,799
-29,6
-25,197
-20,718
-16,44
-12,493
-9,36
-7,603
-6,836
-6,642
-6,966
-7,597
-8,4
-9,366
-10,064
-10,018
-9,512
-8,824
-8,042
-7,393
-6,868
-6,38
-6,128
-6,294
-6,727
-7,307
-7,952
-8,519
-9,05
-9,61
-10,159
-10,692
-11,241
-11,813
-12,433
-13,129
-13,87
-14,632
-15,399
-16,145
-16,864
-17,555
-18,209
-18,821
-19,388
-19,898
-20,346
-20,724
-21,023
-21,241
-21,374
-21,418
-21,374
-21,239
-21,016
-20,715
-20,342
-19,901
-19,399
-18,841
-18,232
-17,586
-16,915
-16,222
-15,513
-14,789
-14,052
-13,31
-12,571
-11,844
-11,141
-10,466
-9,824
-9,22
-8,662
-8,151
-7,689
-7,266
-6,863
-6,478
-6,109
-5,756
-5,428
-5,124
-4,84
-4,571
-4,312
-4,046
-3,762
-3,458
-3,12
-2,758
-2,385
-2,002
-1,647
-1,366
-1,194
-1,174
-1,344
-1,662
-2,104
-2,814
-3,904
-5,521
-7,828
-10,744
-14,224
-18,411
-23,298
-28,455
-33,304
-37,038
-38,897
-38,848
-36,825
-32,612
-26,479
-19,291
-12,487
-8,046
-7,614
-11,755
-20,896
-35,085
-53,275
-73,539
-92,657
-106,514
-111,383
-104,155
-81,899
-42,501
13,177
81,585
158,124
236,486
314,599
394,625
473,055
545,579
602,741
625,722
606,117
540,366
429,082
291,258
144,655
8,881
-91,815
-150,923
-168,195
-153,081
-125,83
-96,47
-73,942
-60,381
-50,955
-47,675
-47,524
-48,541
-51,822
-53,593
-54,86
-57,17
-59,304
-61,751
-63,094
-61,779
-58,246
-52,963
-46,734
-40,457
-34,561
-29,427
-25,338
-22,404
-20,594
-19,742
-19,711
-20,372
-21,583
-23,218
-25,14
-27,217
-29,35
-31,443
-33,382
-35,073
-36,45
-37,465
-38,107
-38,372
-38,262
-37,794
-36,994
-35,894
-34,527
-32,924
-31,117
-29,147
-27,061
-24,909
-22,741
-20,592
-18,484
-16,433
-14,443
-12,512
-10,637
-8,804
-6,999
-5,21
-3,429
-1,65
0,131
1,921
3,73
5,565
7,433
9,342
11,293
13,291
15,336
17,428
19,564
21,742
23,957
26,204
28,482
30,788
33,119
35,472
37,843
40,229
42,624
45,023
47,419
49,805
52,173
54,515
56,822
59,085
61,295
63,443
65,521
67,52
69,431
71,246
72,958
74,557
76,037
77,389
78,607
79,685
80,614
81,391
82,009
82,465
82,753
82,87
82,814
82,583
82,174
81,587
80,822
79,88
78,762
77,471
76,01
74,384
72,598
70,658
68,571
66,344
63,985
61,502
58,903
56,197
53,394
50,501
47,529
44,487
41,383
38,229
35,032
31,804
28,553
25,29
22,023
18,762
15,516
12,295
9,106
5,959
2,862
-0,176
-3,148
-6,047
-8,864
-11,594
-14,23
-16,767
-19,2
-21,525
-23,737
-25,834
-27,811
-29,667
-31,398
-33,004
-34,482
-35,831
-37,05
-38,138
-39,096
-39,924
-40,623
-41,194
-41,638
-41,957
-42,154
-42,231
-42,191
-42,037
-41,774
-41,405
-40,935
-40,37
-39,714
-38,974
-38,155
-37,264
-36,306
-35,287
-34,213
-33,092
-31,928
-30,728
-29,499
-28,247
-26,978
-25,699
-24,415
-23,133
-21,859
-20,598
-19,355
-18,134
-16,942
-15,781
-14,657
-13,573
-12,533
-11,541
-10,6
-9,713
-8,881
-8,107
-7,391
-6,734
-6,137
-5,599
-5,118
-4,696
-4,329
-4,017
-3,757
-3,549
-3,389
-3,275
-3,203
-3,172
-3,175
-3,212
-3,277
-3,367
-3,479
-3,61
-3,757
-3,918
-4,088
-4,266
-4,448
-4,631
-4,81
-4,981
-5,14
-5,283
-5,406
-5,506
-5,579
-5,623
-5,637
-5,619
-5,57
-5,49
-5,378
-5,235
-5,06
-4,852
-4,611
-4,335
-4,026
-3,683
-3,306
-2,897
-2,459
-1,996
-1,512
-1,007
-0,478
0,075
0,649
1,238
1,837
2,434
3,02
3,578
4,082
4,506
4,828
5,029
5,107
5,063
4,9
4,619
4,223
3,717
3,122
2,465
1,764
1,042
0,326
-0,347
-0,9
-1,256
-1,349
-1,117
-0,531
0,418
1,741
3,441
5,506
7,914
10,611
13,53
16,627
19,862
23,194
26,54
29,744
32,631
35,04
36,846
37,991
38,399
37,97
36,679
34,519
31,488
27,667
23,049
17,488
11,013
3,79
-4,071
-12,166
-19,709
-26,147
-30,905
-32,963
-33,198
-32,79
-30,823
-28,286
-23,894
-15,639
-8,736
-6,666
-13,208
-32,672
-58,394
-82,86
-99,269
-99,087
-81,053
-46,088
4,37
67,058
140,03
223,857
320,94
428,538
539,233
637,391
700,741
718,064
686,981
615,291
520,414
411,044
293,484
176,056
66,642
-20,87
-76,173
-100,279
-102,719
-95,963
-88,714
-82,832
-74,445
-61,669
-46,564
-32,295
-22,793
-19,616
-21,504
-26,792
-33,795
-40,683
-45,973
-48,859
-48,937
-46,408
-41,966
-36,272
-29,935
-23,672
-18,144
-13,71
-10,529
-8,555
-7,578
-7,446
-8,028
-9,161
-10,678
-12,442
-14,353
-16,324
-18,285
-20,142
-21,779
-23,116
-24,103
-24,718
-24,961
-24,842
-24,378
-23,596
-22,542
-21,254
-19,773
-18,139
-16,387
-14,564
-12,719
-10,902
-9,162
-7,535
-6,045
-4,705
-3,52
-2,487
-1,603
-0,855
-0,23
0,285
0,699
1,019
1,254
1,412
1,505
1,544
1,542
1,507
1,45
1,378
1,298
1,216
1,14
1,072
1,018
0,983
0,972
0,991
1,047
1,143
1,283
1,471
1,708
1,997
2,339
2,735
3,184
3,686
4,242
4,85
5,509
6,217
6,968
7,757
8,576
9,42
10,279
11,144
12,006
12,853
13,679
14,473
15,227
15,929
16,562
17,115
17,577
17,944
18,208
18,371
18,43
18,39
18,266
18,069
17,813
17,506
17,146
16,728
16,251
15,712
15,111
14,44
13,678
12,8
11,788
10,618
9,271
7,717
5,905
3,792
1,346
-1,456
-4,612
-8,109
-11,936
-16,07
-20,477
-25,106
-29,884
-34,724
-39,562
-44,329
-48,96
-53,385
-57,507
-61,24
-64,522
-67,302
-69,555
-71,274
-72,449
-73,088
-73,227
-72,917
-72,232
-71,265
-70,087
-68,765
-67,37
-65,964
-64,625
-63,42
-62,395
-61,584
-61,009
-60,678
-60,593
-60,757
-61,15
-61,753
-62,535
-63,441
-64,431
-65,464
-66,497
-67,506
-68,469
-69,368
-70,196
-70,953
-71,644
-72,29
-72,915
-73,527
-74,123
-74,681
-75,182
-75,629
-76,027
-76,387
-76,714
-76,999
-77,226
-77,38
-77,452
-77,424
-77,271
-76,95
-76,412
-75,638
-74,641
-73,466
-72,154
-70,727
-69,198
-67,577
-65,883
-64,141
-62,374
-60,594
-58,808
-57,033
-55,297
-53,646
-52,128
-50,769
-49,562
-48,483
-47,508
-46,626
-45,834
-45,127
-44,491
-43,915
-43,396
-42,943
-42,565
-42,264
-42,03
-41,845
-41,686
-41,545
-41,423
-41,328
-41,265
-41,233
-41,229
-41,252
-41,304
-41,384
-41,481
-41,58
-41,665
-41,724
-41,748
-41,734
-41,676
-41,565
-41,395
-41,157
-40,846
-40,457
-39,986
-39,429
-38,782
-38,044
-37,216
-36,302
-35,306
-34,23
-33,08
-31,858
-30,571
-29,223
-27,824
-26,379
-24,898
-23,392
-21,87
-20,344
-18,824
-17,317
-15,832
-14,376
-12,958
-11,596
-10,303
-9,091
-7,976
-6,971
-6,087
-5,328
-4,688
-4,15
-3,697
-3,311
-2,978
-2,689
-2,433
-2,196
-1,962
-1,704
-1,398
-1,023
-0,552
0,037
0,76
1,612
2,544
3,482
4,347
5,074
5,623
5,957
6,008
5,712
4,992
3,76
1,985
-0,425
-3,637
-7,682
-12,481
-17,786
-23,041
-27,704
-31,403
-33,608
-33,801
-31,931
-28,16
-23,229
-18,644
-15,625
-15,076
-18,055
-25,146
-35,899
-49,322
-63,218
-73,913
-78,077
-72,523
-53,488
-19,209
28,963
89,085
157,647
232,56
317,153
411,894
511,135
602,606
665,694
683,664
651,789
575,665
469,432
348,47
224,24
107,227
9,207
-60,023
-95,545
-100,564
-87,566
-69,33
-53,814
-43,328
-34,219
-24,196
-14,111
-5,894
-2,649
-5,289
-12,217
-21,498
-30,839
-38,304
-43,161
-45,167
-44,335
-41,178
-36,318
-30,375
-24,151
-18,411
-13,559
-9,757
-7,013
-5,154
-4,051
-3,632
-3,764
-4,312
-5,17
-6,252
-7,518
-8,959
-10,537
-12,167
-13,731
-15,106
-16,214
-17,018
-17,505
-17,678
-17,533
-17,074
-16,321
-15,302
-14,056
-12,612
-10,982
-9,171
-7,185
-5,052
-2,829
-0,582
1,642
3,818
5,935
7,986
9,959
11,848
13,66
15,412
17,121
18,794
20,429
22,013
23,537
25,005
26,43
27,833
29,228
30,625
32,033
33,458
34,912
36,403
37,928
39,482
41,056
42,651
44,267
45,908
47,574
49,265
50,977
52,705
54,444
56,187
57,928
59,657
61,364
63,041
64,678
66,271
67,811
69,289
70,697
72,025
73,265
74,408
75,444
76,365
77,161
77,826
78,352
78,734
78,966
79,042
78,959
78,714
78,305
77,729
76,986
76,075
75
73,763
72,367
70,816
69,116
67,273
65,292
63,182
60,948
58,598
56,139
53,583
50,937
48,213
45,421
42,573
39,682
36,759
33,817
30,865
27,911
24,963
22,028
19,114
16,226
13,368
10,545
7,763
5,031
2,355
-0,258
-2,809
-5,301
-7,734
-10,106
-12,413
-14,654
-16,828
-18,928
-20,942
-22,848
-24,624
-26,258
-27,748
-29,1
-30,319
-31,41
-32,379
-33,234
-33,998
-34,694
-35,341
-35,949
-36,525
-37,093
-37,697
-38,399
-39,252
-40,291
-41,537
-43
-44,7
-46,639
-48,797
-51,135
-53,582
-56,071
-58,555
-60,992
-63,341
-65,544
-67,517
-69,161
-70,405
-71,185
-71,453
-71,161
-70,241
-68,667
-66,457
-63,667
-60,397
-56,74
-52,77
-48,566
-44,223
-39,837
-35,517
-31,371
-27,468
-23,883
-20,694
-17,984
-15,86
-14,385
-13,568
-13,387
-13,785
-14,701
-16,082
-17,856
-19,919
-22,186
-24,577
-27,027
-29,505
-31,965
-34,349
-36,596
-38,626
-40,388
-41,862
-43,04
-43,929
-44,547
-44,915
-45,076
-45,099
-45,034
-44,915
-44,76
-44,571
-44,355
-44,131
-43,914
-43,721
-43,566
-43,453
-43,386
-43,372
-43,403
-43,469
-43,547
-43,603
-43,612
-43,56
-43,44
-43,251
-42,993
-42,667
-42,274
-41,822
-41,316
-40,757
-40,148
-39,484
-38,768
-38,001
-37,192
-36,347
-35,477
-34,588
-33,687
-32,779
-31,869
-30,955
-30,039
-29,12
-28,204
-27,295
-26,402
-25,538
-24,719
-23,966
-23,299
-22,737
-22,294
-21,977
-21,793
-21,742
-21,824
-22,041
-22,387
-22,852
-23,421
-24,073
-24,783
-25,527
-26,266
-26,946
-27,516
-27,921
-28,114
-28,056
-27,718
-27,083
-26,138
-24,876
-23,304
-21,432
-19,289
-16,917
-14,358
-11,659
-8,888
-6,143
-3,537
-1,2
0,756
2,241
3,166
3,443
2,974
1,671
-0,533
-3,664
-7,754
-12,879
-19,039
-26,117
-33,854
-41,779
-49,423
-56,426
-62,384
-66,779
-69,31
-70
-69,274
-68,144
-67,594
-68,203
-70,545
-75,251
-82,509
-91,819
-101,733
-109,702
-113,132
-109,75
-97,216
-73,176
-35,416
15,717
76,863
144,441
214,376
286,653
365,399
448,216
528,201
592,697
622,794
610,152
555,517
465,188
354,201
234,663
117,314
16,114
-59,539
-104,273
-119,735
-117,699
-109,448
-101,887
-96,969
-90,325
-79,695
-66,875
-54,581
-46,576
-44,403
-46,828
-52,243
-58,966
-65,331
-70,118
-72,667
-72,693
-70,441
-66,571
-61,726
-56,46
-51,38
-47,019
-43,646
-41,377
-40,147
-39,749
-40,025
-40,841
-42,038
-43,473
-45,033
-46,611
-48,123
-49,495
-50,631
-51,454
-51,919
-51,997
-51,685
-50,994
-49,94
-48,555
-46,878
-44,95
-42,81
-40,492
-38,032
-35,47
-32,854
-30,233
-27,654
-25,153
-22,752
-20,469
-18,308
-16,27
-14,35
-12,536
-10,812
-9,166
-7,588
-6,068
-4,601
-3,174
-1,778
-0,399
0,972
2,347
3,732
5,137
6,566
8,025
9,517
11,044
12,607
14,206
15,844
17,523
19,242
21,004
22,806
24,648
26,528
28,441
30,382
32,347
34,328
36,317
38,307
40,288
42,251
44,186
46,083
47,932
49,722
51,442
53,081
54,628
56,074
57,409
58,621
59,703
60,645
61,44
62,08
62,558
62,869
63,006
62,967
62,748
62,346
61,761
60,992
60,041
58,909
57,6
56,118
54,468
52,657
50,692
48,579
46,329
43,949
41,451
38,843
36,136
33,342
30,471
27,534
24,543
21,509
18,442
15,354
12,256
9,157
6,069
3,001
-0,037
-3,036
-5,987
-8,882
-11,714
-14,474
-17,158
-19,76
-22,273
-24,695
-27,022
-29,25
-31,377
-33,402
-35,323
-37,14
-38,853
-40,462
-41,967
-43,37
-44,673
-45,876
-46,982
-47,993
-48,911
-49,739
-50,479
-51,135
-51,709
-52,204
-52,624
-52,972
-53,25
-53,464
-53,615
-53,707
-53,744
-53,729
-53,664
-53,553
-53,398
-53,202
-52,968
-52,696
-52,39
-52,052
-51,682
-51,282
-50,854
-50,4
-49,919
-49,415
-48,887
-48,338
-47,768
-47,179
-46,572
-45,949
-45,311
-44,658
-43,993
-43,317
-42,63
-41,935
-41,233
-40,524
-39,811
-39,096
-38,38
-37,664
-36,951
-36,241
-35,538
-34,841
-34,155
-33,479
-32,817
-32,17
-31,541
-30,933
-30,347
-29,786
-29,252
-28,748
-28,276
-27,837
-27,433
-27,065
-26,736
-26,446
-26,197
-25,989
-25,823
-25,7
-25,62
-25,582
-25,586
-25,631
-25,713
-25,831
-25,981
-26,161
-26,368
-26,598
-26,849
-27,116
-27,399
-27,695
-28,001
-28,313
-28,625
-28,932
-29,227
-29,505
-29,758
-29,978
-30,159
-30,295
-30,381
-30,416
-30,397
-30,32
-30,18
-29,969
-29,684
-29,327
-28,9
-28,404
-27,848
-27,239
-26,595
-25,942
-25,296
-24,668
-24,062
-23,473
-22,9
-22,343
-21,8
-21,269
-20,742
-20,205
-19,65
-19,076
-18,47
-17,815
-17,082
-16,216
-15,189
-13,995
-12,633
-11,12
-9,466
-7,674
-5,763
-3,769
-1,724
0,339
2,399
4,456
6,49
8,478
10,377
12,117
13,658
14,987
16,097
16,979
17,601
17,913
17,888
17,533
16,865
15,885
14,555
12,809
10,594
7,861
4,629
0,906
-3,405
-8,325
-13,773
-19,564
-25,237
-30,281
-34,409
-37,272
-38,353
-37,46
-34,672
-30,349
-25,683
-21,994
-19,993
-20,546
-24,862
-33,161
-44,717
-58,553
-70,818
-77,037
-75,72
-63,759
-40
-6,878
36,858
91,256
156,292
236,25
332,134
439,943
548,804
640,677
696,126
699,817
649,518
551,451
416,173
262,957
108,135
-30,483
-130,744
-185,258
-195,888
-174,463
-144,442
-119,151
-102,833
-93,898
-84,003
-70,937
-57,325
-45,83
-40,107
-40,52
-44,751
-50,966
-57,069
-61,345
-63,304
-62,786
-60,01
-55,701
-50,545
-45,109
-40,021
-35,847
-32,855
-31,13
-30,586
-30,97
-32,079
-33,746
-35,794
-38,056
-40,391
-42,678
-44,81
-46,705
-48,295
-49,525
-50,359
-50,784
-50,796
-50,408
-49,653
-48,573
-47,204
-45,588
-43,758
-41,745
-39,593
-37,349
-35,064
-32,79
-30,562
-28,403
-26,334
-24,365
-22,5
-20,738
-19,065
-17,467
-15,931
-14,451
-13,018
-11,629
-10,273
-8,941
-7,62
-6,303
-4,98
-3,643
-2,286
-0,902
0,514
1,963
3,447
4,967
6,523
8,118
9,754
11,432
13,154
14,92
16,731
18,587
20,485
22,425
24,402
26,413
28,453
30,519
32,605
34,705
36,813
38,923
41,027
43,118
45,187
47,226
49,225
51,176
53,067
54,889
56,632
58,285
59,838
61,283
62,609
63,808
64,871
65,791
66,561
67,174
67,625
67,909
68,022
67,962
67,725
67,311
66,72
65,952
65,008
63,891
62,603
61,148
59,529
57,751
55,82
53,741
51,521
49,167
46,689
44,094
41,392
38,594
35,711
32,753
29,731
26,658
23,545
20,404
17,246
14,084
10,928
7,79
4,68
1,61
-1,412
-4,375
-7,271
-10,091
-12,828
-15,474
-18,024
-20,471
-22,809
-25,033
-27,139
-29,122
-30,979
-32,706
-34,301
-35,762
-37,088
-38,279
-39,335
-40,258
-41,05
-41,714
-42,253
-42,671
-42,972
-43,162
-43,246
-43,229
-43,117
-42,918
-42,637
-42,281
-41,857
-41,371
-40,83
-40,24
-39,608
-38,938
-38,237
-37,51
-36,761
-35,996
-35,219
-34,436
-33,65
-32,868
-32,092
-31,329
-30,581
-29,851
-29,143
-28,459
-27,8
-27,168
-26,565
-25,991
-25,446
-24,932
-24,448
-23,995
-23,572
-23,18
-22,817
-22,483
-22,175
-21,892
-21,632
-21,393
-21,173
-20,969
-20,781
-20,608
-20,45
-20,31
-20,189
-20,089
-20,012
-19,958
-19,927
-19,918
-19,93
-19,958
-20,003
-20,063
-20,14
-20,241
-20,37
-20,527
-20,712
-20,917
-21,131
-21,34
-21,528
-21,676
-21,773
-21,812
-21,793
-21,726
-21,624
-21,502
-21,364
-21,204
-21,014
-20,789
-20,535
-20,264
-20
-19,782
-19,652
-19,665
-19,875
-20,318
-21,008
-21,933
-23,057
-24,338
-25,747
-27,272
-28,91
-30,653
-32,474
-34,333
-36,178
-37,935
-39,513
-40,791
-41,638
-41,941
-41,635
-40,697
-39,148
-37,035
-34,379
-31,183
-27,449
-23,185
-18,423
-13,221
-7,643
-1,772
4,267
10,311
16,165
21,63
26,571
30,906
34,586
37,595
39,876
41,327
41,865
41,41
39,916
37,396
33,843
29,243
23,64
17,1
9,734
1,729
-6,841
-16,021
-25,732
-35,805
-45,881
-55,274
-63,378
-69,795
-74,004
-75,516
-74,281
-70,514
-65,063
-59,579
-55,471
-53,765
-55,498
-61,199
-70,388
-81,925
-93,461
-101,418
-102,441
-93,452
-71,339
-33,732
18,869
83,598
156,809
232,868
310,052
390,714
471,306
546,948
607,869
635,414
621,139
562,348
460,52
333,293
197,037
68,886
-29,571
-91,58
-117,778
-116,3
-105,843
-96,614
-92,196
-92,013
-89,145
-82,17
-73,656
-65,877
-62,456
-64,23
-69,403
-76,515
-83,767
-89,225
-92,08
-92,032
-88,97
-83,421
-76,048
-67,359
-58,035
-48,847
-40,226
-32,396
-25,471
-19,314
-13,84
-9,053
-4,903
-1,371
1,52
3,775
5,387
6,343
6,688
6,479
5,784
4,688
3,257
1,542
-0,405
-2,552
-4,854
-7,245
-9,647
-11,952
-14,053
-15,882
-17,385
-18,531
-19,305
-19,697
-19,708
-19,361
-18,677
-17,676
-16,372
-14,77
-12,887
-10,761
-8,441
-5,998
-3,494
-0,972
1,533
4
6,41
8,75
11,018
13,224
15,382
17,499
19,58
21,625
23,639
25,635
27,634
29,659
31,728
33,852
36,037
38,286
40,599
42,974
45,402
47,866
50,354
52,852
55,35
57,839
60,306
62,738
65,122
67,44
69,682
71,833
73,883
75,818
77,628
79,302
80,833
82,213
83,436
84,495
85,382
86,09
86,613
86,947
87,087
87,028
86,767
86,303
85,633
84,759
83,681
82,401
80,921
79,245
77,378
75,325
73,094
70,691
68,126
65,407
62,545
59,55
56,433
53,206
49,881
46,472
42,989
39,447
35,858
32,235
28,59
24,936
21,284
17,647
14,035
10,46
6,932
3,462
0,061
-3,263
-6,501
-9,643
-12,682
-15,611
-18,421
-21,108
-23,666
-26,09
-28,377
-30,523
-32,525
-34,383
-36,096
-37,665
-39,089
-40,371
-41,513
-42,519
-43,391
-44,134
-44,752
-45,25
-45,632
-45,903
-46,069
-46,133
-46,103
-45,982
-45,776
-45,491
-45,132
-44,703
-44,212
-43,663
-43,062
-42,415
-41,727
-41,003
-40,249
-39,47
-38,671
-37,857
-37,032
-36,201
-35,368
-34,536
-33,709
-32,889
-32,079
-31,28
-30,496
-29,726
-28,972
-28,236
-27,517
-26,818
-26,138
-25,48
-24,843
-24,228
-23,638
-23,073
-22,535
-22,025
-21,543
-21,092
-20,673
-20,287
-19,934
-19,616
-19,333
-19,086
-18,875
-18,7
-18,558
-18,448
-18,37
-18,322
-18,301
-18,308
-18,34
-18,397
-18,48
-18,588
-18,722
-18,88
-19,061
-19,262
-19,482
-19,717
-19,965
-20,221
-20,48
-20,738
-20,992
-21,238
-21,47
-21,678
-21,852
-21,983
-22,069
-22,11
-22,106
-22,063
-21,989
-21,898
-21,812
-21,75
-21,729
-21,757
-21,838
-21,976
-22,182
-22,469
-22,851
-23,327
-23,885
-24,508
-25,173
-25,846
-26,48
-27,011
-27,364
-27,477
-27,304
-26,819
-26,012
-24,869
-23,373
-21,508
-19,259
-16,633
-13,657
-10,363
-6,802
-3,046
0,812
4,641
8,308
11,708
14,754
17,392
19,589
21,297
22,477
23,077
23,017
22,245
20,718
18,406
15,337
11,553
7,093
2,043
-3,529
-9,587
-16,054
-22,939
-30,345
-38,229
-46,442
-54,657
-62,25
-68,673
-73,584
-76,524
-77,045
-75,114
-70,985
-65,553
-60,459
-57,011
-56,041
-58,394
-64,529
-74,076
-86,041
-98,048
-106,448
-108,17
-100,483
-80,493
-46,106
3,62
67,181
139,67
215,362
289,953
363,057
436,037
505,625
564,354
599,242
596,432
552,358
470,218
358,56
232,706
105,253
-10,67
-98,871
-152,161
-170,283
-160,868
-140,958
-121,865
-108,173
-99,598
-90,412
-79,072
-67,558
-57,962
-53,243
-53,682
-57,402
-62,88
-68,261
-71,967
-73,504
-72,701
-69,725
-65,224
-59,851
-54,135
-48,676
-44,033
-40,461
-38,048
-36,738
-36,31
-36,586
-37,427
-38,672
-40,167
-41,8
-43,464
-45,071
-46,552
-47,82
-48,803
-49,458
-49,754
-49,687
-49,268
-48,514
-47,457
-46,137
-44,593
-42,859
-40,969
-38,954
-36,854
-34,712
-32,571
-30,473
-28,447
-26,511
-24,679
-22,954
-21,332
-19,806
-18,361
-16,979
-15,648
-14,356
-13,094
-11,852
-10,62
-9,386
-8,138
-6,867
-5,562
-4,217
-2,823
-1,376
0,127
1,689
3,311
4,991
6,73
8,528
10,385
12,3
14,272
16,298
18,377
20,503
22,673
24,88
27,116
29,375
31,647
33,922
36,192
38,446
40,673
42,862
45,001
47,079
49,085
51,007
52,834
54,553
56,154
57,626
58,96
60,145
61,173
62,036
62,726
63,237
63,564
63,702
63,648
63,399
62,954
62,313
61,476
60,444
59,222
57,812
56,22
54,452
52,516
50,419
48,17
45,778
43,253
40,607
37,85
34,993
32,048
29,027
25,942
22,807
19,631
16,429
13,212
9,991
6,778
3,583
0,418
-2,708
-5,786
-8,806
-11,759
-14,64
-17,439
-20,152
-22,772
-25,295
-27,717
-30,035
-32,246
-34,348
-36,341
-38,224
-39,997
-41,661
-43,218
-44,668
-46,015
-47,26
-48,406
-49,457
-50,415
-51,285
-52,069
-52,771
-53,395
-53,944
-54,421
-54,831
-55,177
-55,461
-55,689
-55,863
-55,986
-56,061
-56,092
-56,081
-56,03
-55,942
-55,817
-55,659
-55,467
-55,243
-54,989
-54,704
-54,389
-54,045
-53,671
-53,269
-52,837
-52,377
-51,889
-51,374
-50,833
-50,266
-49,676
-49,065
-48,436
-47,79
-47,13
-46,459
-45,78
-45,096
-44,409
-43,722
-43,039
-42,36
-41,69
-41,033
-40,389
-39,764
-39,161
-38,581
-38,029
-37,507
-37,019
-36,567
-36,154
-35,783
-35,456
-35,177
-34,947
-34,768
-34,641
-34,567
-34,546
-34,576
-34,654
-34,778
-34,942
-35,143
-35,375
-35,633
-35,913
-36,209
-36,517
-36,834
-37,154
-37,475
-37,788
-38,087
-38,366
-38,618
-38,836
-39,012
-39,138
-39,209
-39,22
-39,167
-39,05
-38,863
-38,602
-38,259
-37,831
-37,319
-36,728
-36,061
-35,326
-34,533
-33,7
-32,852
-32,015
-31,206
-30,434
-29,701
-29,01
-28,367
-27,776
-27,241
-26,754
-26,3
-25,867
-25,448
-25,032
-24,603
-24,131
-23,571
-22,885
-22,057
-21,086
-19,985
-18,764
-17,428
-15,989
-14,469
-12,912
-11,364
-9,859
-8,417
-7,058
-5,81
-4,707
-3,803
-3,137
-2,718
-2,538
-2,586
-2,871
-3,409
-4,224
-5,312
-6,624
-8,137
-9,846
-11,779
-13,991
-16,521
-19,375
-22,589
-26,262
-30,449
-35,134
-40,143
-45,084
-49,545
-53,183
-55,645
-56,564
-55,717
-53,138
-49,342
-45,381
-42,399
-41,345
-42,994
-48,012
-56,733
-68,844
-82,961
-96,567
-106,698
-110,582
-105,592
-89,038
-58,469
-11,992
49,296
121,064
198,697
276,861
354,389
434,578
515,054
591,422
653,334
680,691
663,42
596,931
482,163
339,069
186,493
44,392
-62,803
-128,622
-154,623
-149,724
-134,506
-120,015
-110,026
-104,539
-96,637
-84,673
-71,392
-59,302
-52,286
-51,393
-54,797
-60,736
-67,042
-71,736
-74,076
-73,822
-71,022
-66,229
-60,104
-53,261
-46,449
-40,431
-35,607
-32,117
-29,947
-28,887
-28,755
-29,422
-30,697
-32,375
-34,297
-36,339
-38,397
-40,4
-42,255
-43,847
-45,1
-45,964
-46,416
-46,462
-46,114
-45,393
-44,33
-42,969
-41,35
-39,514
-37,503
-35,356
-33,12
-30,842
-28,571
-26,351
-24,213
-22,178
-20,254
-18,442
-16,736
-15,126
-13,597
-12,134
-10,721
-9,35
-8,008
-6,688
-5,378
-4,067
-2,743
-1,395
-0,015
1,405
2,871
4,386
5,953
7,574
9,247
10,972
12,748
14,576
16,454
18,383
20,36
22,384
24,45
26,557
28,697
30,867
33,058
35,263
37,475
39,683
41,881
44,058
46,204
48,31
50,366
52,361
54,285
56,129
57,881
59,532
61,073
62,492
63,783
64,936
65,943
66,798
67,494
68,026
68,39
68,581
68,598
68,437
68,099
67,584
66,892
66,025
64,986
63,78
62,412
60,887
59,211
57,392
55,439
53,358
51,16
48,854
46,449
43,956
41,384
38,745
36,05
33,309
30,534
27,736
24,925
22,112
19,308
16,522
13,765
11,044
8,37
5,749
3,19
0,699
-1,718
-4,054
-6,305
-8,466
-10,535
-12,507
-14,381
-16,155
-17,828
-19,399
-20,868
-22,236
-23,503
-24,672
-25,743
-26,72
-27,604
-28,399
-29,108
-29,736
-30,285
-30,762
-31,17
-31,513
-31,797
-32,026
-32,205
-32,338
-32,43
-32,484
-32,505
-32,496
-32,462
-32,405
-32,329
-32,237
-32,13
-32,012
-31,885
-31,751
-31,61
-31,466
-31,318
-31,169
-31,02
-30,87
-30,721
-30,572
-30,425
-30,279
-30,132
-29,985
-29,837
-29,687
-29,533
-29,374
-29,209
-29,037
-28,857
-28,667
-28,468
-28,257
-28,035
-27,802
-27,557
-27,301
-27,034
-26,756
-26,468
-26,169
-25,861
-25,544
-25,218
-24,885
-24,544
-24,197
-23,844
-23,485
-23,122
-22,756
-22,388
-22,019
-21,651
-21,285
-20,924
-20,568
-20,22
-19,882
-19,556
-19,244
-18,946
-18,665
-18,401
-18,156
-17,927
-17,714
-17,516
-17,331
-17,157
-16,993
-16,838
-16,688
-16,544
-16,406
-16,273
-16,143
-16,017
-15,891
-15,764
-15,635
-15,502
-15,361
-15,21
-15,045
-14,864
-14,669
-14,458
-14,228
-13,976
-13,695
-13,382
-13,04
-12,672
-12,281
-11,871
-11,449
-11,03
-10,635
-10,283
-9,988
-9,76
-9,601
-9,521
-9,533
-9,645
-9,861
-10,173
-10,565
-11,022
-11,536
-12,086
-12,638
-13,149
-13,56
-13,822
-13,905
-13,773
-13,393
-12,726
-11,729
-10,378
-8,673
-6,623
-4,247
-1,565
1,406
4,626
8,021
11,509
14,99
18,359
21,532
24,401
26,85
28,781
30,084
30,653
30,406
29,262
27,138
24,003
19,789
14,383
7,819
0,259
-8,005
-16,446
-24,561
-31,986
-38,23
-42,687
-45,113
-45,64
-44,804
-43,88
-44,068
-46,093
-50,856
-59,177
-71,004
-85,43
-100,718
-113,772
-121,186
-120,114
-107,223
-79,074
-35,216
21,914
89,65
163,563
242,847
331,96
428,697
525,511
608,666
656,91
658,563
614,013
531,135
425,022
309,263
192,886
86,261
1,791
-52,584
-74,092
-69,052
-53,176
-37,847
-28,733
-25,897
-23,347
-19,172
-14,847
-12,057
-13,702
-19,985
-28,86
-38,799
-48,037
-55,1
-59,603
-61,413
-60,621
-57,811
-53,613
-48,563
-43,282
-38,346
-34,041
-30,509
-27,798
-25,822
-24,516
-23,828
-23,646
-23,841
-24,323
-25,021
-25,889
-26,899
-27,995
-29,106
-30,181
-31,187
-32,104
-32,91
-33,565
-34,004
-34,19
-34,112
-33,777
-33,206
-32,419
-31,424
-30,245
-28,911
-27,449
-25,885
-24,226
-22,454
-20,569
-18,578
-16,509
-14,405
-12,297
-10,197
-8,114
-6,055
-4,027
-2,038
-0,085
1,848
3,768
5,677
7,567
9,42
11,227
12,992
14,722
16,437
18,148
19,861
21,583
23,323
25,088
26,879
28,695
30,524
32,359
34,197
36,038
37,882
39,728
41,57
43,402
45,215
47,003
48,757
50,468
52,125
53,719
55,242
56,686
58,047
59,319
60,494
61,565
62,526
63,368
64,087
64,674
65,123
65,428
65,584
65,588
65,437
65,129
64,662
64,036
63,25
62,308
61,209
59,957
58,556
57,008
55,321
53,498
51,547
49,474
47,286
44,992
42,599
40,116
37,55
34,912
32,209
29,451
26,648
23,808
20,942
18,058
15,168
12,279
9,403
6,547
3,722
0,934
-1,808
-4,496
-7,124
-9,686
-12,175
-14,588
-16,919
-19,164
-21,321
-23,387
-25,359
-27,236
-29,018
-30,702
-32,29
-33,78
-35,173
-36,469
-37,669
-38,774
-39,785
-40,703
-41,53
-42,269
-42,922
-43,492
-43,982
-44,395
-44,736
-45,007
-45,212
-45,356
-45,442
-45,474
-45,456
-45,391
-45,284
-45,136
-44,953
-44,735
-44,486
-44,209
-43,905
-43,577
-43,227
-42,857
-42,469
-42,065
-41,649
-41,221
-40,785
-40,344
-39,9
-39,455
-39,012
-38,572
-38,138
-37,712
-37,295
-36,888
-36,491
-36,107
-35,735
-35,375
-35,028
-34,694
-34,373
-34,065
-33,77
-33,489
-33,221
-32,969
-32,732
-32,513
-32,311
-32,128
-31,965
-31,823
-31,701
-31,601
-31,522
-31,463
-31,425
-31,405
-31,404
-31,419
-31,451
-31,497
-31,557
-31,63
-31,715
-31,811
-31,918
-32,036
-32,164
-32,303
-32,454
-32,615
-32,788
-32,973
-33,169
-33,374
-33,586
-33,802
-34,022
-34,241
-34,456
-34,666
-34,866
-35,058
-35,238
-35,406
-35,558
-35,693
-35,808
-35,902
-35,97
-36,011
-36,019
-35,992
-35,928
-35,825
-35,681
-35,494
-35,259
-34,969
-34,621
-34,214
-33,751
-33,234
-32,672
-32,072
-31,45
-30,83
-30,228
-29,664
-29,152
-28,7
-28,319
-28,02
-27,807
-27,692
-27,676
-27,744
-27,878
-28,054
-28,232
-28,376
-28,44
-28,362
-28,092
-27,588
-26,815
-25,758
-24,402
-22,735
-20,753
-18,452
-15,84
-12,958
-9,86
-6,608
-3,293
0,005
3,208
6,209
8,921
11,268
13,188
14,652
15,632
16,092
15,98
15,235
13,812
11,71
8,96
5,62
1,776
-2,512
-7,165
-12,108
-17,303
-22,708
-28,351
-34,322
-40,617
-47,168
-53,738
-59,756
-64,583
-67,671
-68,419
-66,459
-61,812
-54,459
-45,144
-35,743
-28,215
-24,664
-25,732
-29,665
-34,913
-41,497
-52,271
-70,848
-95,848
-118,142
-122,386
-95,494
-33,123
58,357
166,601
283,642
402,868
518,172
618,538
683,075
699,251
663,596
584,151
481,603
367,382
248,936
133,889
27,714
-56,914
-110,049
-132,589
-133,517
-125,291
-116,736
-109,694
-100,259
-86,425
-70,222
-54,831
-44,129
-39,658
-40,146
-43,98
-49,647
-55,45
-59,965
-62,431
-62,481
-60,343
-56,728
-52,238
-47,351
-42,668
-38,781
-36,01
-34,491
-34,14
-34,694
-35,958
-37,78
-39,986
-42,405
-44,88
-47,281
-49,498
-51,454
-53,082
-54,326
-55,149
-55,534
-55,479
-54,996
-54,12
-52,893
-51,357
-49,554
-47,525
-45,303
-42,938
-40,48
-37,983
-35,5
-33,069
-30,717
-28,463
-26,32
-24,294
-22,383
-20,578
-18,862
-17,223
-15,654
-14,145
-12,692
-11,282
-9,904
-8,545
-7,193
-5,838
-4,469
-3,079
-1,658
-0,201
1,297
2,839
4,426
6,06
7,745
9,485
11,28
13,135
15,048
17,02
19,051
21,139
23,28
25,47
27,703
29,972
32,271
34,591
36,925
39,262
41,592
43,904
46,187
48,428
50,614
52,734
54,772
56,717
58,554
60,273
61,859
63,303
64,592
65,716
66,667
67,435
68,013
68,395
68,574
68,547
68,31
67,862
67,203
66,332
65,253
63,968
62,483
60,804
58,936
56,888
54,668
52,287
49,756
47,085
44,288
41,378
38,367
35,27
32,102
28,877
25,608
22,311
18,999
15,686
12,385
9,109
5,871
2,681
-0,449
-3,509
-6,489
-9,382
-12,178
-14,872
-17,458
-19,931
-22,286
-24,521
-26,634
-28,622
-30,486
-32,225
-33,839
-35,331
-36,702
-37,956
-39,096
-40,127
-41,052
-41,878
-42,609
-43,25
-43,808
-44,288
-44,695
-45,035
-45,313
-45,536
-45,707
-45,832
-45,916
-45,962
-45,976
-45,96
-45,918
-45,852
-45,766
-45,66
-45,537
-45,399
-45,246
-45,08
-44,902
-44,712
-44,51
-44,298
-44,075
-43,84
-43,595
-43,337
-43,066
-42,783
-42,485
-42,173
-41,846
-41,503
-41,144
-40,769
-40,378
-39,97
-39,547
-39,107
-38,652
-38,183
-37,7
-37,206
-36,701
-36,189
-35,672
-35,151
-34,631
-34,114
-33,603
-33,101
-32,609
-32,132
-31,672
-31,23
-30,81
-30,413
-30,041
-29,698
-29,384
-29,102
-28,854
-28,642
-28,466
-28,329
-28,231
-28,173
-28,157
-28,182
-28,248
-28,357
-28,507
-28,698
-28,929
-29,198
-29,502
-29,838
-30,203
-30,591
-30,996
-31,415
-31,841
-32,269
-32,695
-33,114
-33,521
-33,914
-34,288
-34,639
-34,965
-35,26
-35,518
-35,736
-35,907
-36,027
-36,092
-36,094
-36,031
-35,9
-35,701
-35,431
-35,087
-34,664
-34,159
-33,577
-32,922
-32,199
-31,418
-30,588
-29,721
-28,84
-27,965
-27,113
-26,304
-25,544
-24,836
-24,187
-23,605
-23,092
-22,644
-22,244
-21,867
-21,502
-21,132
-20,74
-20,308
-19,791
-19,155
-18,373
-17,41
-16,248
-14,876
-13,277
-11,444
-9,39
-7,136
-4,726
-2,22
0,355
2,963
5,57
8,14
10,609
12,919
15,011
16,788
18,155
19,024
19,313
18,987
18,021
16,373
14,05
11,061
7,38
3,042
-2,003
-7,904
-14,599
-21,922
-29,615
-37,079
-43,748
-49,256
-52,987
-54,322
-53,271
-50,093
-45,456
-40,854
-37,76
-37,199
-40,35
-48,3
-59,414
-71,552
-84,01
-93,338
-98,983
-101,059
-91,457
-65,626
-21,03
45,922
126,865
215,186
311,295
410,848
510,555
602,218
666,551
686,577
655,605
574,125
452,155
308,94
159,816
22,265
-82,768
-147,691
-171,117
-161,085
-138,383
-115,365
-97,706
-86,331
-74,114
-59,141
-43,865
-30,505
-22,966
-22,181
-26,046
-32,612
-39,545
-44,797
-47,641
-47,852
-45,506
-41,199
-35,634
-29,438
-23,333
-18,019
-13,825
-10,848
-9,049
-8,209
-8,14
-8,711
-9,741
-11,051
-12,514
-14,023
-15,49
-16,856
-18,038
-18,962
-19,587
-19,887
-19,861
-19,518
-18,87
-17,934
-16,734
-15,289
-13,619
-11,748
-9,703
-7,529
-5,28
-3,015
-0,796
1,34
3,37
5,28
7,062
8,711
10,221
11,586
12,794
13,821
14,638
15,226
15,579
15,716
15,676
15,505
15,265
15,001
14,745
14,527
14,374
14,308
14,357
14,552
14,933
15,552
16,473
17,743
19,39
21,416
23,795
26,482
29,416
32,541
35,811
39,187
42,636
46,128
49,634
53,119
56,548
59,869
63,019
65,945
68,604
70,975
73,054
74,858
76,416
77,752
78,888
79,836
80,602
81,186
81,586
81,797
81,815
81,644
81,3
80,794
80,138
79,337
78,385
77,273
75,983
74,501
72,815
70,918
68,809
66,492
63,975
61,269
58,391
55,352
52,164
48,837
45,38
41,803
38,121
34,348
30,5
26,595
22,649
18,678
14,699
10,726
6,772
2,847
-1,038
-4,873
-8,648
-12,354
-15,979
-19,514
-22,949
-26,274
-29,482
-32,562
-35,509
-38,315
-40,976
-43,487
-45,844
-48,044
-50,084
-51,962
-53,678
-55,229
-56,615
-57,837
-58,896
-59,792
-60,527
-61,105
-61,528
-61,8
-61,925
-61,908
-61,753
-61,467
-61,054
-60,521
-59,874
-59,12
-58,267
-57,32
-56,29
-55,183
-54,007
-52,772
-51,485
-50,155
-48,788
-47,393
-45,978
-44,549
-43,114
-41,681
-40,255
-38,844
-37,456
-36,095
-34,769
-33,483
-32,243
-31,055
-29,922
-28,851
-27,843
-26,902
-26,032
-25,234
-24,509
-23,858
-23,282
-22,779
-22,349
-21,991
-21,702
-21,48
-21,321
-21,225
-21,186
-21,203
-21,271
-21,387
-21,547
-21,748
-21,985
-22,257
-22,557
-22,882
-23,227
-23,587
-23,959
-24,335
-24,71
-25,077
-25,43
-25,765
-26,075
-26,356
-26,603
-26,812
-26,983
-27,113
-27,201
-27,244
-27,241
-27,19
-27,091
-26,943
-26,745
-26,495
-26,191
-25,834
-25,427
-24,972
-24,468
-23,913
-23,305
-22,642
-21,931
-21,177
-20,386
-19,569
-18,736
-17,905
-17,103
-16,353
-15,673
-15,08
-14,58
-14,183
-13,907
-13,759
-13,744
-13,858
-14,083
-14,402
-14,803
-15,256
-15,725
-16,159
-16,495
-16,679
-16,668
-16,42
-15,896
-15,057
-13,864
-12,297
-10,359
-8,064
-5,44
-2,52
0,669
4,066
7,59
11,146
14,632
17,944
20,983
23,627
25,743
27,213
27,948
27,88
26,951
25,101
22,272
18,415
13,53
7,625
0,65
-7,337
-16,153
-25,471
-34,716
-43,281
-50,71
-56,506
-60,089
-61,258
-60,199
-57,527
-54,629
-52,878
-53,194
-56,567
-63,839
-74,952
-88,981
-103,983
-116,585
-123,381
-121,379
-107,209
-77,927
-31,72
30,356
104,116
184,538
265,766
346,018
427,272
506,023
577,682
632,284
650,984
624,331
548,149
425,439
277,655
127,671
-1,16
-88,587
-132,237
-140,691
-130,479
-118,234
-110,893
-107,995
-103,403
-93,357
-79,625
-65,754
-56,282
-53,173
-55,177
-60,48
-67,241
-73,683
-78,505
-80,997
-80,788
-78,044
-73,376
-67,386
-60,62
-53,73
-47,34
-41,803
-37,308
-33,857
-31,294
-29,509
-28,399
-27,821
-27,626
-27,696
-27,952
-28,34
-28,838
-29,403
-29,986
-30,555
-31,089
-31,568
-31,967
-32,251
-32,372
-32,303
-32,047
-31,609
-31,001
-30,239
-29,336
-28,307
-27,174
-25,943
-24,61
-23,166
-21,601
-19,915
-18,124
-16,251
-14,331
-12,392
-10,447
-8,51
-6,587
-4,679
-2,787
-0,907
0,971
2,846
4,707
6,547
8,356
10,134
11,887
13,628
15,375
17,144
18,947
20,796
22,695
24,646
26,649
28,698
30,784
32,902
35,048
37,218
39,41
41,618
43,835
46,051
48,255
50,435
52,58
54,678
56,716
58,685
60,576
62,379
64,088
65,694
67,19
68,566
69,813
70,923
71,886
72,694
73,339
73,814
74,113
74,231
74,164
73,91
73,467
72,832
72,006
70,99
69,785
68,393
66,818
65,064
63,136
61,04
58,783
56,371
53,812
51,116
48,29
45,343
42,287
39,129
35,882
32,555
29,16
25,709
22,214
18,686
15,138
11,582
8,03
4,495
0,988
-2,48
-5,898
-9,257
-12,545
-15,755
-18,878
-21,905
-24,83
-27,646
-30,346
-32,927
-35,383
-37,712
-39,909
-41,973
-43,902
-45,694
-47,349
-48,867
-50,248
-51,493
-52,604
-53,584
-54,435
-55,16
-55,764
-56,252
-56,628
-56,898
-57,068
-57,142
-57,128
-57,031
-56,858
-56,614
-56,307
-55,943
-55,528
-55,068
-54,569
-54,036
-53,474
-52,888
-52,282
-51,66
-51,026
-50,383
-49,733
-49,08
-48,426
-47,773
-47,124
-46,479
-45,841
-45,211
-44,589
-43,977
-43,375
-42,785
-42,206
-41,639
-41,085
-40,545
-40,019
-39,506
-39,008
-38,525
-38,056
-37,602
-37,162
-36,737
-36,328
-35,934
-35,558
-35,2
-34,862
-34,546
-34,254
-33,987
-33,749
-33,54
-33,364
-33,223
-33,118
-33,051
-33,026
-33,042
-33,101
-33,202
-33,345
-33,529
-33,752
-34,013
-34,309
-34,638
-34,997
-35,385
-35,799
-36,237
-36,693
-37,164
-37,644
-38,129
-38,614
-39,093
-39,559
-40,005
-40,424
-40,812
-41,163
-41,469
-41,72
-41,904
-42,012
-42,043
-41,996
-41,872
-41,674
-41,409
-41,088
-40,728
-40,347
-39,954
-39,558
-39,159
-38,765
-38,389
-38,049
-37,761
-37,529
-37,344
-37,191
-37,053
-36,904
-36,708
-36,419
-35,976
-35,333
-34,464
-33,357
-32,01
-30,41
-28,532
-26,341
-23,817
-20,962
-17,796
-14,352
-10,67
-6,805
-2,839
1,133
4,996
8,657
12,061
15,168
17,943
20,332
22,239
23,546
24,16
24,019
23,096
21,375
18,817
15,401
11,14
6,062
0,255
-6,247
-13,524
-21,543
-30,14
-39,014
-47,575
-55,238
-61,643
-66,322
-68,718
-68,752
-66,61
-62,905
-59,036
-56,125
-54,809
-55,978
-60,299
-67,422
-76,394
-85,244
-90,725
-90,242
-81,561
-61,756
-28,42
19,729
81,423
152,239
227,244
301,769
375,099
449,771
522,885
589,772
640,221
656,306
629,406
556,133
440,372
302,027
161,346
38,708
-48,748
-98,544
-116,997
-117,744
-114,317
-112,731
-113,299
-110,756
-102,112
-89,259
-75,334
-64,695
-59,458
-58,671
-60,827
-64,31
-67,452
-68,929
-68,025
-64,411
-58,26
-50,256
-41,114
-31,45
-21,995
-13,497
-6,384
-0,912
2,833
5
5,709
5,064
3,261
0,513
-2,997
-7,088
-11,578
-16,314
-21,093
-25,718
-30,058
-33,999
-37,461
-40,38
-42,682
-44,318
-45,279
-45,576
-45,238
-44,305
-42,816
-40,829
-38,433
-35,723
-32,805
-29,781
-26,717
-23,665
-20,664
-17,748
-14,95
-12,291
-9,777
-7,403
-5,168
-3,067
-1,101
0,737
2,468
4,117
5,71
7,276
8,831
10,386
11,951
13,532
15,132
16,755
18,394
20,045
21,704
23,369
25,041
26,721
28,405
30,089
31,768
33,438
35,094
36,732
38,349
39,94
41,502
43,031
44,526
45,983
47,4
48,771
50,091
51,355
52,557
53,691
54,75
55,728
56,619
57,416
58,115
58,711
59,198
59,573
59,83
59,966
59,978
59,862
59,616
59,237
58,724
58,077
57,293
56,374
55,321
54,134
52,818
51,375
49,808
48,122
46,322
44,414
42,403
40,297
38,103
35,828
33,479
31,066
28,597
26,08
23,524
20,937
18,328
15,705
13,076
10,449
7,831
5,229
2,65
0,101
-2,413
-4,885
-7,31
-9,682
-11,998
-14,252
-16,442
-18,562
-20,612
-22,588
-24,488
-26,312
-28,058
-29,726
-31,316
-32,828
-34,262
-35,62
-36,902
-38,111
-39,248
-40,315
-41,314
-42,247
-43,116
-43,923
-44,669
-45,357
-45,988
-46,563
-47,083
-47,55
-47,964
-48,327
-48,64
-48,903
-49,118
-49,284
-49,403
-49,476
-49,503
-49,485
-49,423
-49,317
-49,168
-48,978
-48,748
-48,478
-48,17
-47,824
-47,443
-47,028
-46,58
-46,1
-45,591
-45,054
-44,491
-43,904
-43,297
-42,671
-42,031
-41,379
-40,719
-40,056
-39,392
-38,732
-38,081
-37,443
-36,823
-36,225
-35,654
-35,112
-34,604
-34,134
-33,705
-33,319
-32,978
-32,686
-32,443
-32,252
-32,113
-32,028
-31,997
-32,02
-32,098
-32,23
-32,416
-32,656
-32,947
-33,29
-33,682
-34,122
-34,607
-35,133
-35,699
-36,299
-36,929
-37,584
-38,257
-38,941
-39,63
-40,319
-40,999
-41,666
-42,314
-42,937
-43,531
-44,095
-44,622
-45,108
-45,547
-45,934
-46,264
-46,53
-46,728
-46,851
-46,894
-46,852
-46,728
-46,518
-46,222
-45,834
-45,347
-44,758
-44,071
-43,291
-42,423
-41,476
-40,462
-39,402
-38,325
-37,259
-36,223
-35,226
-34,267
-33,349
-32,473
-31,644
-30,865
-30,126
-29,414
-28,72
-28,038
-27,359
-26,661
-25,903
-25,028
-23,988
-22,765
-21,361
-19,795
-18,085
-16,257
-14,343
-12,381
-10,428
-8,522
-6,689
-4,941
-3,294
-1,786
-0,473
0,569
1,292
1,686
1,758
1,536
1,046
0,333
-0,556
-1,576
-2,683
-3,88
-5,181
-6,594
-8,13
-9,808
-11,639
-13,639
-15,856
-18,322
-21,114
-24,41
-28,28
-32,684
-37,448
-42,129
-46,231
-49,382
-51,102
-50,802
-48,314
-43,891
-38,209
-32,807
-29,246
-28,611
-32,147
-40,9
-54,773
-72,623
-92,367
-110,353
-122,462
-125,119
-114,209
-85,641
-38,896
23,291
98,068
180,401
268,89
367,443
472,167
574,017
658,427
703,522
698,25
643,848
548,365
427,19
294,571
160,891
38,719
-57,484
-119,027
-143,788
-139,52
-123,129
-106,266
-94,223
-86,647
-77,774
-66,513
-55,155
-45,976
-42,105
-43,735
-48,771
-55,624
-62,342
-67,168
-69,533
-69,204
-66,283
-61,447
-55,399
-48,744
-42,197
-36,44
-31,812
-28,451
-26,343
-25,288
-25,127
-25,73
-26,923
-28,522
-30,384
-32,397
-34,464
-36,514
-38,446
-40,143
-41,521
-42,527
-43,133
-43,337
-43,145
-42,568
-41,629
-40,37
-38,829
-37,045
-35,059
-32,906
-30,632
-28,286
-25,917
-23,574
-21,29
-19,088
-16,977
-14,962
-13,04
-11,203
-9,44
-7,734
-6,074
-4,45
-2,853
-1,276
0,29
1,855
3,429
5,022
6,641
8,292
9,978
11,702
13,465
15,268
17,107
18,982
20,891
22,834
24,81
26,819
28,859
30,93
33,029
35,154
37,301
39,466
41,644
43,828
46,011
48,187
50,348
52,485
54,589
56,652
58,664
60,615
62,496
64,297
66,009
67,622
69,127
70,515
71,779
72,911
73,903
74,75
75,445
75,984
76,363
76,577
76,625
76,504
76,212
75,75
75,117
74,315
73,347
72,214
70,922
69,475
67,88
66,143
64,271
62,274
60,161
57,942
55,626
53,226
50,752
48,216
45,63
43,006
40,355
37,689
35,021
32,36
29,717
27,103
24,527
21,998
19,524
17,112
14,771
12,506
10,322
8,225
6,219
4,307
2,491
0,774
-0,843
-2,359
-3,776
-5,095
-6,316
-7,443
-8,48
-9,429
-10,296
-11,085
-11,802
-12,453
-13,043
-13,578
-14,065
-14,509
-14,917
-15,294
-15,645
-15,975
-16,289
-16,589
-16,879
-17,163
-17,442
-17,717
-17,99
-18,262
-18,532
-18,8
-19,066
-19,328
-19,585
-19,835
-20,075
-20,303
-20,517
-20,713
-20,888
-21,038
-21,161
-21,251
-21,307
-21,325
-21,301
-21,233
-21,118
-20,953
-20,738
-20,471
-20,151
-19,779
-19,355
-18,881
-18,359
-17,791
-17,18
-16,53
-15,844
-15,128
-14,387
-13,624
-12,846
-12,057
-11,264
-10,472
-9,686
-8,912
-8,157
-7,424
-6,721
-6,051
-5,421
-4,834
-4,294
-3,806
-3,371
-2,994
-2,674
-2,414
-2,214
-2,073
-1,99
-1,964
-1,993
-2,073
-2,201
-2,374
-2,586
-2,834
-3,112
-3,414
-3,737
-4,073
-4,419
-4,769
-5,117
-5,458
-5,788
-6,101
-6,391
-6,653
-6,881
-7,069
-7,214
-7,31
-7,355
-7,345
-7,279
-7,156
-6,977
-6,741
-6,45
-6,105
-5,706
-5,255
-4,757
-4,211
-3,62
-2,986
-2,313
-1,606
-0,869
-0,105
0,685
1,501
2,341
3,197
4,062
4,928
5,784
6,621
7,419
8,155
8,807
9,361
9,802
10,121
10,308
10,344
10,221
9,936
9,493
8,911
8,213
7,416
6,553
5,672
4,824
4,076
3,48
3,075
2,907
3,021
3,468
4,3
5,551
7,228
9,328
11,834
14,711
17,937
21,445
25,14
28,931
32,714
36,401
39,923
43,165
45,981
48,232
49,783
50,547
50,478
49,501
47,553
44,601
40,625
35,686
29,838
23,035
15,316
6,823
-2,148
-11,058
-19,38
-26,693
-32,404
-35,86
-36,801
-35,252
-31,917
-28,115
-24,707
-22,679
-23,567
-28,31
-37,145
-48,575
-58,227
-62,933
-61,505
-54,279
-43,741
-27,208
0,838
45,683
114,009
204,336
311,978
432,073
551,034
655,861
731,754
759,525
733,027
653,123
526,526
375,012
218,168
76,182
-28,092
-89,061
-109,483
-100,804
-85,409
-74,181
-70,003
-71,197
-68,932
-61,583
-52,5
-44,364
-41,32
-44,247
-50,932
-59,706
-68,691
-75,885
-80,53
-82,396
-81,416
-78,204
-73,508
-67,899
-62,112
-56,91
-52,669
-49,526
-47,467
-46,263
-45,744
-45,81
-46,293
-47,033
-47,913
-48,842
-49,79
-50,725
-51,577
-52,253
-52,655
-52,743
-52,539
-52,092
-51,477
-50,748
-49,933
-49,079
-48,245
-47,469
-46,779
-46,175
-45,628
-45,148
-44,771
-44,525
-44,431
-44,458
-44,545
-44,636
-44,671
-44,606
-44,414
-44,052
-43,471
-42,645
-41,573
-40,27
-38,77
-37,068
-35,137
-32,967
-30,573
-28,007
-25,329
-22,575
-19,772
-16,94
-14,102
-11,29
-8,537
-5,85
-3,227
-0,659
1,859
4,305
6,646
8,869
10,982
13,016
14,998
16,935
18,827
20,673
22,481
24,262
26,016
27,73
29,386
30,971
32,481
33,922
35,303
36,621
37,862
39,005
40,033
40,936
41,707
42,336
42,81
43,116
43,252
43,221
43,026
42,667
42,142
41,444
40,57
39,522
38,302
36,914
35,36
33,645
31,774
29,754
27,594
25,302
22,884
20,346
17,694
14,937
12,085
9,147
6,132
3,051
-0,085
-3,264
-6,476
-9,707
-12,948
-16,189
-19,417
-22,624
-25,798
-28,929
-32,008
-35,025
-37,972
-40,84
-43,621
-46,307
-48,892
-51,37
-53,734
-55,98
-58,102
-60,098
-61,965
-63,701
-65,305
-66,775
-68,113
-69,32
-70,398
-71,35
-72,179
-72,889
-73,485
-73,974
-74,36
-74,651
-74,852
-74,973
-75,019
-74,999
-74,92
-74,79
-74,617
-74,408
-74,17
-73,91
-73,636
-73,353
-73,069
-72,79
-72,521
-72,268
-72,035
-71,827
-71,646
-71,495
-71,376
-71,291
-71,24
-71,223
-71,238
-71,286
-71,365
-71,472
-71,604
-71,759
-71,934
-72,123
-72,324
-72,532
-72,743
-72,952
-73,155
-73,348
-73,527
-73,688
-73,829
-73,945
-74,035
-74,094
-74,122
-74,115
-74,072
-73,992
-73,875
-73,721
-73,531
-73,307
-73,051
-72,767
-72,458
-72,128
-71,781
-71,421
-71,053
-70,682
-70,312
-69,947
-69,592
-69,25
-68,926
-68,624
-68,346
-68,097
-67,878
-67,693
-67,545
-67,435
-67,364
-67,333
-67,34
-67,383
-67,459
-67,567
-67,702
-67,86
-68,033
-68,217
-68,406
-68,594
-68,771
-68,926
-69,042
-69,108
-69,117
-69,065
-68,948
-68,77
-68,531
-68,242
-67,922
-67,585
-67,241
-66,896
-66,545
-66,191
-65,839
-65,496
-65,181
-64,896
-64,631
-64,377
-64,118
-63,825
-63,463
-62,977
-62,286
-61,336
-60,083
-58,501
-56,592
-54,351
-51,771
-48,854
-45,596
-42,002
-38,101
-33,92
-29,49
-24,875
-20,153
-15,435
-10,871
-6,576
-2,634
0,885
3,947
6,522
8,571
10,073
11,005
11,325
10,991
9,954
8,162
5,617
2,365
-1,52
-5,951
-10,871
-16,245
-22,032
-28,179
-34,694
-41,663
-49,081
-56,821
-64,539
-71,682
-77,785
-82,503
-85,356
-85,815
-83,714
-79,218
-73,17
-66,962
-61,457
-57,514
-56,455
-59,066
-65,519
-74,245
-80,883
-82,38
-77,643
-67,254
-54,095
-35,526
-5,694
40,911
111,121
203,496
312,102
430,143
543,536
638,038
699,815
716,313
685,124
612,13
506,906
379,551
240,119
98,805
-30,653
-130,257
-188,261
-202,013
-179,348
-136,803
-90,558
-53,364
-31,115
-25,334
-32,922
-45,877
-59,006
-67,562
-70,177
-71,28
-72,743
-75,172
-78,356
-79,422
-77,211
-72,303
-65,304
-57,37
-49,476
-42,048
-35,377
-29,682
-24,976
-21,109
-17,992
-15,567
-13,711
-12,34
-11,385
-10,758
-10,445
-10,46
-10,752
-11,237
-11,823
-12,409
-12,934
-13,35
-13,59
-13,611
-13,386
-12,904
-12,189
-11,263
-10,131
-8,801
-7,272
-5,533
-3,598
-1,493
0,759
3,121
5,561
8,044
10,514
12,929
15,267
17,514
19,676
21,761
23,765
25,689
27,535
29,295
30,971
32,564
34,075
35,511
36,889
38,226
39,555
40,902
42,287
43,721
45,213
46,765
48,383
50,07
51,821
53,636
55,517
57,463
59,477
61,558
63,701
65,899
68,141
70,415
72,712
75,02
77,329
79,626
81,903
84,149
86,355
88,511
90,607
92,63
94,568
96,408
98,137
99,743
101,215
102,539
103,707
104,708
105,535
106,18
106,638
106,902
106,969
106,835
106,498
105,958
105,214
104,267
103,122
101,78
100,247
98,53
96,635
94,57
92,342
89,963
87,441
84,787
82,013
79,129
76,148
73,083
69,948
66,755
63,519
60,253
56,97
53,685
50,409
47,156
43,936
40,762
37,644
34,591
31,613
28,719
25,916
23,21
20,609
18,116
15,736
13,472
11,327
9,303
7,4
5,621
3,964
2,429
1,015
-0,279
-1,457
-2,521
-3,475
-4,322
-5,068
-5,717
-6,275
-6,746
-7,136
-7,451
-7,696
-7,876
-7,997
-8,064
-8,083
-8,059
-7,998
-7,903
-7,781
-7,635
-7,47
-7,289
-7,095
-6,892
-6,683
-6,469
-6,254
-6,041
-5,83
-5,626
-5,429
-5,242
-5,067
-4,904
-4,756
-4,623
-4,506
-4,407
-4,326
-4,265
-4,225
-4,207
-4,213
-4,242
-4,297
-4,377
-4,483
-4,615
-4,772
-4,952
-5,154
-5,379
-5,624
-5,89
-6,176
-6,482
-6,809
-7,156
-7,524
-7,911
-8,314
-8,732
-9,159
-9,593
-10,029
-10,461
-10,886
-11,297
-11,693
-12,069
-12,422
-12,743
-13,023
-13,256
-13,44
-13,574
-13,661
-13,706
-13,718
-13,71
-13,703
-13,716
-13,762
-13,854
-13,996
-14,188
-14,432
-14,727
-15,078
-15,481
-15,917
-16,367
-16,804
-17,195
-17,505
-17,688
-17,686
-17,448
-16,939
-16,135
-15,028
-13,623
-11,933
-9,978
-7,78
-5,372
-2,799
-0,117
2,606
5,299
7,889
10,294
12,422
14,192
15,55
16,46
16,908
16,901
16,458
15,605
14,369
12,765
10,806
8,516
5,944
3,151
0,194
-2,889
-6,063
-9,305
-12,62
-16,002
-19,501
-23,265
-27,376
-31,794
-36,36
-40,687
-44,334
-47,007
-48,369
-47,931
-45,48
-41,204
-35,658
-30,103
-25,937
-24,118
-25,644
-31,57
-42,149
-56,633
-73,529
-90,013
-102,516
-107,902
-102,687
-82,878
-47,272
1,8
61,882
129,227
202,58
287,104
383,164
483,251
574,817
636,631
650,235
612,188
525,857
401,259
258,088
110,283
-26,897
-131,531
-194,701
-211,691
-185,9
-139,013
-89,492
-53,925
-44,003
-55,097
-78,34
-102,063
-115,872
-118,699
-113,717
-106,773
-102,398
-100,399
-98,941
-95,545
-88,946
-79,819
-69,175
-57,987
-47,004
-36,733
-27,543
-19,7
-13,351
-8,462
-5,009
-3,012
-2,396
-3,04
-4,801
-7,494
-10,962
-15,069
-19,619
-24,396
-29,203
-33,844
-38,181
-42,113
-45,526
-48,342
-50,511
-51,998
-52,806
-52,955
-52,471
-51,404
-49,82
-47,794
-45,419
-42,793
-40,007
-37,153
-34,303
-31,508
-28,815
-26,255
-23,846
-21,598
-19,512
-17,578
-15,791
-14,139
-12,601
-11,163
-9,799
-8,483
-7,187
-5,883
-4,547
-3,164
-1,723
-0,217
1,356
2,996
4,701
6,464
8,279
10,145
12,055
14,007
15,998
18,021
20,068
22,132
24,203
26,275
28,34
30,389
32,414
34,408
36,361
38,268
40,12
41,906
43,618
45,243
46,772
48,194
49,499
50,675
51,715
52,608
53,347
53,926
54,337
54,574
54,634
54,51
54,2
53,701
53,01
52,125
51,046
49,774
48,308
46,652
44,809
42,784
40,58
38,205
35,665
32,968
30,123
27,139
24,027
20,796
17,458
14,025
10,508
6,92
3,273
-0,421
-4,15
-7,902
-11,664
-15,427
-19,179
-22,91
-26,609
-30,266
-33,872
-37,418
-40,895
-44,295
-47,609
-50,831
-53,953
-56,968
-59,872
-62,659
-65,325
-67,866
-70,28
-72,563
-74,716
-76,736
-78,624
-80,381
-82,006
-83,503
-84,874
-86,12
-87,246
-88,256
-89,151
-89,938
-90,62
-91,201
-91,686
-92,079
-92,385
-92,609
-92,754
-92,826
-92,831
-92,772
-92,656
-92,488
-92,273
-92,016
-91,722
-91,396
-91,044
-90,669
-90,276
-89,869
-89,45
-89,023
-88,591
-88,156
-87,718
-87,281
-86,843
-86,405
-85,967
-85,528
-85,086
-84,641
-84,191
-83,733
-83,266
-82,789
-82,3
-81,796
-81,274
-80,734
-80,173
-79,588
-78,977
-78,338
-77,669
-76,968
-76,233
-75,463
-74,657
-73,812
-72,929
-72,009
-71,052
-70,062
-69,041
-67,992
-66,921
-65,832
-64,732
-63,626
-62,517
-61,412
-60,315
-59,232
-58,171
-57,139
-56,144
-55,193
-54,292
-53,449
-52,668
-51,951
-51,299
-50,713
-50,198
-49,763
-49,419
-49,178
-49,049
-49,043
-49,162
-49,408
-49,771
-50,233
-50,778
-51,384
-52,037
-52,727
-53,442
-54,168
-54,881
-55,548
-56,135
-56,609
-56,94
-57,095
-57,064
-56,867
-56,546
-56,171
-55,81
-55,497
-55,278
-55,216
-55,368
-55,819
-56,666
-57,958
-59,817
-62,434
-65,86
-70,055
-74,81
-79,595
-83,903
-87,36
-89,409
-89,525
-87,669
-84,019
-79,364
-75,306
-73,144
-73,885
-78,723
-88,303
-102,157
-119,271
-137,341
-152,434
-160,961
-159,469
-143,815
-112,077
-65,653
-6,151
63,141
139,829
227,082
324,882
426,451
520,511
587,784
610,092
582,136
505,312
388,115
248,893
102,731
-32,63
-135,368
-197,454
-218,142
-206,377
-183,376
-161,417
-145,519
-135,803
-124,783
-110,473
-95,419
-81,999
-74,15
-72,846
-76,094
-82,069
-88,582
-93,666
-96,617
-97,211
-95,507
-92,071
-87,526
-82,413
-77,382
-73,087
-69,85
-67,765
-66,78
-66,66
-67,209
-68,29
-69,725
-71,337
-72,983
-74,546
-75,93
-77,074
-77,918
-78,411
-78,517
-78,22
-77,521
-76,435
-74,99
-73,224
-71,17
-68,864
-66,342
-63,635
-60,786
-57,841
-54,848
-51,858
-48,906
-46,017
-43,211
-40,501
-37,89
-35,379
-32,956
-30,608
-28,323
-26,092
-23,908
-21,764
-19,651
-17,556
-15,467
-13,371
-11,26
-9,124
-6,955
-4,744
-2,488
-0,181
2,178
4,589
7,055
9,576
12,157
14,797
17,498
20,259
23,081
25,961
28,899
31,889
34,928
38,009
41,125
44,268
47,431
50,603
53,774
56,934
60,069
63,167
66,217
69,203
72,113
74,934
77,651
80,251
82,723
85,053
87,23
89,243
91,084
92,743
94,214
95,488
96,562
97,429
98,088
98,535
98,769
98,79
98,599
98,198
97,592
96,785
95,783
94,594
93,226
91,688
89,992
88,148
86,168
84,066
81,854
79,547
77,159
74,704
72,196
69,651
67,082
64,503
61,927
59,367
56,833
54,337
51,89
49,5
47,176
44,928
42,761
40,684
38,702
36,822
35,047
33,381
31,828
30,389
29,064
27,855
26,761
25,78
24,911
24,152
23,5
22,952
22,504
22,153
21,894
21,723
21,634
21,622
21,684
21,815
22,009
22,265
22,579
22,947
23,368
23,839
24,357
24,92
25,524
26,168
26,847
27,558
28,298
29,065
29,857
30,673
31,512
32,373
33,256
34,163
35,094
36,047
37,021
38,012
39,018
40,037
41,064
42,096
43,129
44,16
45,189
46,217
47,243
48,263
49,272
50,261
51,223
52,158
53,063
53,936
54,782
55,608
56,43
57,272
58,152
59,077
60,049
61,059
62,102
63,17
64,254
65,346
66,435
67,511
68,572
69,62
70,637
71,596
72,451
73,133
73,589
73,786
73,692
73,297
72,604
71,622
70,388
68,951
67,354
65,631
63,8
61,87
59,877
57,88
55,959
54,233
52,802
51,756
51,199
51,205
51,823
53,078
54,94
57,34
60,227
63,555
67,299
71,454
75,983
80,822
85,885
91,047
96,187
101,17
105,832
110,022
113,616
116,523
118,717
120,222
121,043
121,18
120,61
119,259
117,076
114,036
110,129
105,404
99,912
93,697
86,836
79,43
71,56
63,319
54,721
45,627
36,022
26,065
16,07
6,595
-1,81
-8,776
-13,855
-16,44
-16,301
-13,695
-9,369
-4,671
-0,874
0,93
-0,339
-5,57
-15,125
-26,895
-37,909
-46,43
-49,286
-46,244
-37,132
-14,472
24,901
82,495
160,762
250,103
344,743
444,855
542,624
634,185
710,655
753,349
753,581
707,885
618,609
500,201
366,538
232,565
116,529
29,99
-21,309
-40,503
-42,049
-38,954
-38,743
-42,991
-45,733
-43,427
-37,585
-31,089
-28,195
-30,81
-37,601
-46,695
-56,324
-64,845
-71,044
-74,308
-74,361
-71,412
-66,186
-59,439
-51,84
-44,153
-37,078
-31,013
-26,175
-22,594
-20,134
-18,716
-18,293
-18,776
-20,05
-21,998
-24,509
-27,473
-30,778
-34,268
-37,743
-41,022
-43,971
-46,509
-48,593
-50,203
-51,316
-51,921
-52,02
-51,613
-50,711
-49,338
-47,515
-45,284
-42,704
-39,85
-36,817
-33,7
-30,565
-27,467
-24,443
-21,522
-18,734
-16,094
-13,604
-11,271
-9,103
-7,115
-5,325
-3,752
-2,411
-1,318
-0,479
0,107
0,448
0,564
0,491
0,27
-0,05
-0,433
-0,859
-1,308
-1,761
-2,194
-2,579
-2,88
-3,058
-3,062
-2,835
-2,332
-1,53
-0,429
0,943
2,542
4,306
6,182
8,129
10,112
12,102
14,073
15,998
17,847
19,585
21,168
22,535
23,636
24,434
24,912
25,074
24,94
24,545
23,922
23,098
22,093
20,918
19,583
18,09
16,444
14,647
12,708
10,65
8,49
6,248
3,934
1,549
-0,912
-3,458
-6,1
-8,844
-11,695
-14,648
-17,698
-20,833
-24,041
-27,303
-30,605
-33,936
-37,284
-40,64
-43,995
-47,335
-50,648
-53,922
-57,142
-60,297
-63,373
-66,36
-69,25
-72,034
-74,708
-77,266
-79,705
-82,022
-84,212
-86,272
-88,2
-89,991
-91,645
-93,158
-94,53
-95,76
-96,848
-97,795
-98,603
-99,275
-99,813
-100,221
-100,502
-100,662
-100,704
-100,633
-100,454
-100,171
-99,79
-99,316
-98,753
-98,106
-97,381
-96,583
-95,716
-94,786
-93,798
-92,758
-91,67
-90,54
-89,374
-88,177
-86,953
-85,71
-84,451
-83,183
-81,911
-80,64
-79,375
-78,121
-76,882
-75,662
-74,466
-73,295
-72,154
-71,046
-69,972
-68,935
-67,939
-66,984
-66,074
-65,212
-64,399
-63,638
-62,93
-62,276
-61,678
-61,137
-60,652
-60,223
-59,85
-59,529
-59,259
-59,037
-58,859
-58,721
-58,619
-58,55
-58,508
-58,49
-58,492
-58,51
-58,541
-58,579
-58,62
-58,658
-58,69
-58,711
-58,715
-58,698
-58,654
-58,577
-58,465
-58,312
-58,113
-57,86
-57,542
-57,153
-56,691
-56,159
-55,56
-54,902
-54,196
-53,456
-52,705
-51,964
-51,251
-50,58
-49,956
-49,39
-48,894
-48,485
-48,183
-47,998
-47,92
-47,935
-48,023
-48,15
-48,282
-48,368
-48,334
-48,121
-47,687
-47,002
-46,058
-44,838
-43,314
-41,453
-39,229
-36,633
-33,688
-30,428
-26,888
-23,13
-19,225
-15,266
-11,39
-7,706
-4,29
-1,203
1,513
3,789
5,526
6,61
6,961
6,535
5,306
3,245
0,29
-3,595
-8,42
-14,136
-20,677
-28,1
-36,391
-45,413
-54,867
-64,17
-72,705
-80,03
-85,674
-89,071
-90,021
-88,73
-85,9
-83,087
-81,8
-83,021
-87,771
-96,839
-110,133
-126,687
-144,271
-159,1
-167,482
-166,24
-151,877
-121,415
-73,008
-7,457
70,998
156,82
245,346
335,645
427,984
518
595,561
645,527
655,082
620,743
549,546
453,743
341,917
221,822
99,484
-16,105
-106,43
-160,339
-175,83
-160,003
-132,992
-108,961
-93,282
-86,493
-82,194
-77,254
-72,909
-70,633
-72,687
-79,025
-87,462
-95,855
-102,175
-105,475
-105,772
-103,281
-98,554
-92,289
-85,162
-77,995
-71,534
-66,145
-61,952
-58,928
-56,907
-55,764
-55,391
-55,615
-56,259
-57,181
-58,263
-59,424
-60,598
-61,684
-62,572
-63,156
-63,36
-63,155
-62,532
-61,496
-60,065
-58,26
-56,112
-53,67
-50,977
-48,078
-45,021
-41,847
-38,605
-35,345
-32,117
-28,968
-25,931
-23,024
-20,255
-17,625
-15,132
-12,768
-10,524
-8,386
-6,342
-4,383
-2,501
-0,688
1,065
2,768
4,432
6,067
7,682
9,284
10,878
12,471
14,065
15,663
17,269
18,882
20,506
22,142
23,794
25,462
27,148
28,852
30,575
32,313
34,066
35,83
37,599
39,369
41,133
42,887
44,621
46,331
48,008
49,645
51,235
52,768
54,239
55,638
56,957
58,189
59,326
60,36
61,283
62,09
62,772
63,324
63,74
64,014
64,143
64,12
63,944
63,611
63,12
62,468
61,658
60,688
59,561
58,281
56,851
55,276
53,561
51,713
49,737
47,643
45,437
43,127
40,722
38,231
35,662
33,025
30,328
27,582
24,795
21,977
19,137
16,284
13,428
10,577
7,741
4,929
2,149
-0,59
-3,28
-5,912
-8,478
-10,973
-13,389
-15,72
-17,962
-20,109
-22,159
-24,107
-25,952
-27,691
-29,323
-30,847
-32,265
-33,575
-34,779
-35,878
-36,874
-37,77
-38,567
-39,269
-39,877
-40,396
-40,829
-41,178
-41,448
-41,643
-41,767
-41,824
-41,82
-41,76
-41,65
-41,494
-41,299
-41,069
-40,811
-40,53
-40,231
-39,918
-39,598
-39,274
-38,95
-38,63
-38,319
-38,019
-37,732
-37,461
-37,208
-36,974
-36,761
-36,569
-36,399
-36,253
-36,13
-36,033
-35,96
-35,914
-35,895
-35,902
-35,936
-35,996
-36,082
-36,192
-36,327
-36,484
-36,663
-36,864
-37,083
-37,322
-37,577
-37,849
-38,134
-38,432
-38,74
-39,057
-39,382
-39,712
-40,048
-40,388
-40,733
-41,082
-41,435
-41,793
-42,155
-42,521
-42,89
-43,261
-43,634
-44,008
-44,38
-44,751
-45,119
-45,484
-45,844
-46,198
-46,543
-46,879
-47,202
-47,509
-47,796
-48,06
-48,297
-48,504
-48,679
-48,819
-48,921
-48,986
-49,011
-48,997
-48,944
-48,847
-48,706
-48,516
-48,274
-47,977
-47,622
-47,205
-46,725
-46,182
-45,576
-44,914
-44,197
-43,429
-42,61
-41,737
-40,812
-39,84
-38,829
-37,782
-36,711
-35,631
-34,564
-33,54
-32,585
-31,71
-30,926
-30,228
-29,613
-29,079
-28,619
-28,228
-27,902
-27,631
-27,412
-27,251
-27,137
-27,052
-26,96
-26,791
-26,489
-26,02
-25,353
-24,482
-23,408
-22,132
-20,673
-19,063
-17,32
-15,466
-13,513
-11,45
-9,289
-7,055
-4,808
-2,679
-0,799
0,725
1,8
2,379
2,419
1,844
0,62
-1,243
-3,76
-6,901
-10,708
-15,369
-20,921
-27,23
-34,049
-40,875
-47,156
-52,507
-56,392
-58,112
-57,396
-54,446
-49,809
-44,57
-40,151
-37,85
-38,797
-44,302
-53,598
-63,351
-72,06
-78,575
-82,677
-87,556
-88,921
-76,153
-41,865
21,047
110,092
210,742
314,57
417,936
516,102
609,139
687,452
729,021
722,171
660,368
546,31
403,166
250,512
107,646
-3,103
-76,738
-113,253
-119,124
-113,17
-105,044
-98,382
-93,868
-84,525
-69,11
-51,69
-35,526
-24,972
-21,549
-23,483
-29,028
-36,454
-43,803
-49,551
-52,887
-53,43
-51,389
-47,457
-42,274
-36,405
-30,547
-25,343
-21,102
-17,919
-15,701
-14,216
-13,32
-12,933
-12,927
-13,158
-13,517
-13,915
-14,289
-14,612
-14,822
-14,834
-14,603
-14,11
-13,379
-12,479
-11,457
-10,334
-9,116
-7,786
-6,337
-4,787
-3,149
-1,443
0,31
2,091
3,869
5,599
7,263
8,858
10,406
11,961
13,557
15,203
16,897
18,614
20,339
22,069
23,796
25,511
27,209
28,888
30,556
32,236
33,936
35,659
37,395
39,122
40,83
42,518
44,192
45,867
47,553
49,256
50,984
52,75
54,558
56,414
58,311
60,24
62,192
64,161
66,145
68,141
70,146
72,15
74,144
76,12
78,065
79,97
81,822
83,607
85,314
86,93
88,448
89,861
91,161
92,341
93,394
94,315
95,098
95,738
96,23
96,571
96,755
96,781
96,647
96,352
95,896
95,28
94,505
93,572
92,485
91,247
89,861
88,332
86,665
84,867
82,944
80,904
78,754
76,504
74,163
71,739
69,243
66,684
64,072
61,417
58,727
56,012
53,28
50,539
47,798
45,063
42,341
39,641
36,967
34,327
31,726
29,168
26,659
24,204
21,807
19,471
17,201
15
12,872
10,819
8,844
6,949
5,136
3,406
1,76
0,197
-1,281
-2,677
-3,99
-5,223
-6,375
-7,449
-8,446
-9,368
-10,218
-10,996
-11,705
-12,346
-12,923
-13,437
-13,889
-14,283
-14,619
-14,901
-15,129
-15,308
-15,438
-15,524
-15,568
-15,574
-15,544
-15,483
-15,393
-15,279
-15,144
-14,991
-14,824
-14,646
-14,46
-14,27
-14,078
-13,888
-13,703
-13,526
-13,359
-13,205
-13,067
-12,945
-12,844
-12,763
-12,705
-12,671
-12,663
-12,682
-12,73
-12,806
-12,913
-13,049
-13,216
-13,412
-13,638
-13,892
-14,172
-14,478
-14,807
-15,159
-15,53
-15,919
-16,324
-16,743
-17,174
-17,615
-18,063
-18,514
-18,968
-19,42
-19,87
-20,316
-20,754
-21,184
-21,605
-22,016
-22,417
-22,807
-23,186
-23,555
-23,914
-24,264
-24,606
-24,94
-25,268
-25,591
-25,911
-26,231
-26,55
-26,872
-27,2
-27,537
-27,889
-28,257
-28,645
-29,053
-29,483
-29,936
-30,416
-30,921
-31,451
-32,006
-32,587
-33,203
-33,862
-34,562
-35,299
-36,061
-36,84
-37,627
-38,416
-39,193
-39,941
-40,65
-41,317
-41,954
-42,57
-43,166
-43,732
-44,244
-44,683
-45,045
-45,34
-45,583
-45,787
-45,968
-46,151
-46,385
-46,72
-47,187
-47,784
-48,477
-49,233
-50,039
-50,896
-51,827
-52,838
-53,916
-55,034
-56,155
-57,243
-58,247
-59,087
-59,641
-59,79
-59,445
-58,573
-57,202
-55,356
-53,047
-50,269
-46,997
-43,23
-38,989
-34,305
-29,225
-23,807
-18,13
-12,329
-6,589
-1,097
3,981
8,539
12,539
15,94
18,692
20,722
21,917
22,183
21,449
19,658
16,789
12,83
7,768
1,654
-5,413
-13,332
-21,942
-31,188
-41,147
-51,749
-62,793
-73,913
-84,436
-93,749
-101,451
-106,979
-109,704
-109,476
-106,47
-101,471
-96,104
-91,717
-89,207
-89,648
-93,813
-101,468
-111,62
-122,024
-129,099
-129,53
-120,372
-98,319
-60,28
-6,126
61,3
138,203
218,972
302,542
393,099
488,591
582,505
661,271
702,796
695,107
636,498
532,762
401,262
258,184
118,646
0,38
-85,362
-133,437
-147,412
-141,931
-130,468
-120,783
-114,596
-106,542
-93,825
-78,577
-64,12
-54,894
-52,749
-56,262
-63,496
-72,452
-81,132
-88,041
-92,355
-93,658
-92,116
-88,389
-83,107
-76,857
-70,371
-64,292
-58,96
-54,525
-50,903
-47,873
-45,303
-43,084
-41,094
-39,23
-37,415
-35,636
-33,935
-32,366
-30,962
-29,719
-28,597
-27,586
-26,698
-25,953
-25,383
-25,006
-24,815
-24,817
-25,017
-25,399
-25,944
-26,598
-27,273
-27,897
-28,403
-28,743
-28,9
-28,845
-28,546
-27,98
-27,125
-25,973
-24,531
-22,802
-20,782
-18,489
-15,949
-13,21
-10,343
-7,407
-4,451
-1,515
1,378
4,205
6,944
9,584
12,125
14,569
16,921
19,183
21,352
23,433
25,435
27,376
29,281
31,167
33,044
34,922
36,804
38,691
40,583
42,474
44,351
46,203
48,021
49,796
51,523
53,195
54,803
56,337
57,789
59,15
60,415
61,577
62,631
63,573
64,397
65,101
65,685
66,147
66,484
66,694
66,776
66,726
66,543
66,228
65,777
65,191
64,471
63,616
62,628
61,511
60,266
58,896
57,406
55,801
54,084
52,261
50,339
48,322
46,217
44,031
41,77
39,44
37,05
34,605
32,113
29,581
27,017
24,428
21,822
19,204
16,584
13,967
11,361
8,772
6,207
3,672
1,174
-1,283
-3,691
-6,046
-8,343
-10,578
-12,747
-14,846
-16,871
-18,821
-20,692
-22,482
-24,19
-25,814
-27,352
-28,803
-30,167
-31,443
-32,63
-33,73
-34,743
-35,668
-36,509
-37,264
-37,937
-38,528
-39,04
-39,473
-39,831
-40,114
-40,326
-40,467
-40,54
-40,548
-40,491
-40,373
-40,195
-39,96
-39,668
-39,322
-38,925
-38,478
-37,982
-37,442
-36,858
-36,234
-35,572
-34,875
-34,146
-33,39
-32,608
-31,806
-30,985
-30,151
-29,306
-28,454
-27,598
-26,743
-25,891
-25,046
-24,211
-23,391
-22,588
-21,807
-21,051
-20,324
-19,63
-18,972
-18,353
-17,778
-17,248
-16,767
-16,337
-15,96
-15,639
-15,375
-15,17
-15,025
-14,94
-14,914
-14,949
-15,042
-15,191
-15,394
-15,649
-15,953
-16,303
-16,696
-17,129
-17,598
-18,101
-18,636
-19,199
-19,786
-20,394
-21,018
-21,653
-22,296
-22,94
-23,579
-24,209
-24,826
-25,427
-26,01
-26,575
-27,12
-27,645
-28,151
-28,638
-29,104
-29,547
-29,963
-30,351
-30,71
-31,044
-31,36
-31,66
-31,945
-32,22
-32,482
-32,727
-32,946
-33,121
-33,233
-33,271
-33,231
-33,114
-32,93
-32,688
-32,397
-32,075
-31,728
-31,362
-30,984
-30,59
-30,185
-29,792
-29,442
-29,183
-29,078
-29,164
-29,473
-30,037
-30,856
-31,927
-33,229
-34,709
-36,339
-38,098
-39,967
-41,949
-44,028
-46,148
-48,247
-50,241
-52,017
-53,491
-54,569
-55,138
-55,136
-54,532
-53,322
-51,557
-49,258
-46,414
-43,022
-39,064
-34,547
-29,541
-24,112
-18,341
-12,356
-6,275
-0,249
5,516
10,883
15,755
20,06
23,773
26,815
29,05
30,367
30,668
29,902
28,066
25,122
21,027
15,79
9,423
2,039
-6,219
-15,35
-25,253
-35,708
-46,405
-56,72
-65,997
-73,851
-79,801
-83,313
-84,392
-83,255
-80,516
-77,642
-75,815
-75,686
-78,118
-83,63
-91,681
-101,274
-110,453
-115,854
-114,632
-104,621
-83,543
-49,613
-2,182
58,201
129,543
206,832
283,576
355,538
419,011
471,983
516,165
548,702
563,519
554,983
513,951
437,242
330,44
203,825
75,861
-33,68
-111,65
-153,151
-164,563
-160,183
-152,18
-146,659
-143,493
-137,677
-126,814
-112,772
-98,654
-88,137
-82,728
-81,444
-82,89
-85,629
-88,186
-89,399
-88,682
-85,853
-81,195
-75,332
-68,781
-61,956
-55,38
-49,558
-44,782
-41,158
-38,591
-36,85
-35,763
-35,216
-35,098
-35,288
-35,66
-36,105
-36,536
-36,917
-37,252
-37,542
-37,794
-38,011
-38,188
-38,339
-38,499
-38,686
-38,904
-39,131
-39,318
-39,435
-39,486
-39,477
-39,418
-39,303
-39,091
-38,747
-38,256
-37,597
-36,762
-35,734
-34,485
-33,007
-31,317
-29,447
-27,447
-25,353
-23,177
-20,931
-18,627
-16,282
-13,922
-11,561
-9,202
-6,848
-4,504
-2,176
0,125
2,396
4,653
6,911
9,191
11,508
13,865
16,267
18,716
21,214
23,76
26,349
28,968
31,606
34,256
36,91
39,561
42,2
44,813
47,386
49,907
52,362
54,74
57,032
59,224
61,308
63,275
65,117
66,829
68,405
69,836
71,116
72,239
73,198
73,987
74,602
75,036
75,286
75,349
75,221
74,901
74,39
73,685
72,789
71,704
70,433
68,978
67,346
65,542
63,573
61,447
59,172
56,758
54,215
51,552
48,783
45,918
42,968
39,947
36,865
33,736
30,572
27,386
24,189
20,994
17,814
14,66
11,544
8,478
5,473
2,54
-0,311
-3,07
-5,728
-8,275
-10,704
-13,007
-15,177
-17,21
-19,1
-20,844
-22,439
-23,883
-25,176
-26,318
-27,309
-28,153
-28,851
-29,408
-29,827
-30,114
-30,273
-30,311
-30,234
-30,049
-29,763
-29,383
-28,916
-28,369
-27,751
-27,069
-26,331
-25,544
-24,716
-23,855
-22,968
-22,063
-21,146
-20,225
-19,305
-18,394
-17,495
-16,615
-15,757
-14,926
-14,125
-13,357
-12,624
-11,928
-11,27
-10,651
-10,07
-9,529
-9,026
-8,561
-8,132
-7,739
-7,379
-7,051
-6,754
-6,486
-6,245
-6,03
-5,838
-5,668
-5,519
-5,389
-5,276
-5,18
-5,099
-5,032
-4,979
-4,938
-4,91
-4,895
-4,892
-4,901
-4,923
-4,959
-5,008
-5,071
-5,151
-5,248
-5,363
-5,498
-5,655
-5,836
-6,04
-6,271
-6,528
-6,814
-7,128
-7,471
-7,844
-8,247
-8,679
-9,141
-9,631
-10,147
-10,688
-11,252
-11,835
-12,435
-13,047
-13,667
-14,292
-14,917
-15,538
-16,151
-16,749
-17,329
-17,885
-18,412
-18,906
-19,36
-19,77
-20,13
-20,437
-20,686
-20,873
-20,995
-21,048
-21,032
-20,945
-20,788
-20,56
-20,263
-19,899
-19,472
-18,983
-18,436
-17,833
-17,177
-16,473
-15,726
-14,944
-14,134
-13,304
-12,462
-11,617
-10,775
-9,944
-9,127
-8,326
-7,545
-6,793
-6,083
-5,43
-4,85
-4,356
-3,96
-3,67
-3,486
-3,402
-3,4
-3,463
-3,574
-3,72
-3,894
-4,088
-4,294
-4,489
-4,646
-4,735
-4,723
-4,585
-4,29
-3,832
-3,236
-2,549
-1,846
-1,196
-0,643
-0,237
-0,051
-0,153
-0,624
-1,562
-3,014
-5,09
-7,99
-11,763
-16,342
-21,492
-26,693
-31,453
-35,442
-38,178
-39,13
-38,23
-35,73
-32,441
-29,896
-29,296
-31,425
-37,163
-47,053
-60,655
-76,707
-92,76
-105,254
-110,946
-106,787
-89,587
-56,822
-8,853
51,093
119,056
191,28
268,421
353,224
442,353
525,37
585,386
606,057
581,452
517,634
427,699
323,548
214,642
108,64
14,101
-57,095
-97,929
-110,336
-103,937
-91,237
-80,557
-73,344
-66,018
-56,641
-46,091
-36,661
-31,784
-32,425
-37,158
-44,43
-52,3
-58,855
-63,298
-65,295
-64,682
-61,958
-57,765
-52,618
-47,221
-42,287
-38,169
-35,026
-32,891
-31,565
-30,875
-30,691
-30,811
-31,062
-31,327
-31,512
-31,566
-31,462
-31,146
-30,563
-29,68
-28,479
-26,971
-25,177
-23,126
-20,872
-18,491
-16,088
-13,765
-11,593
-9,623
-7,889
-6,423
-5,249
-4,373
-3,775
-3,414
-3,248
-3,245
-3,378
-3,617
-3,915
-4,207
-4,414
-4,47
-4,326
-3,946
-3,308
-2,388
-1,184
0,289
1,982
3,835
5,796
7,836
9,938
12,095
14,299
16,538
18,803
21,09
23,389
25,693
27,996
30,293
32,592
34,919
37,32
39,847
42,552
45,464
48,593
51,93
55,444
59,094
62,822
66,575
70,314
74,005
77,618
81,124
84,491
87,671
90,611
93,245
95,501
97,321
98,668
99,525
99,909
99,853
99,414
98,639
97,566
96,226
94,641
92,831
90,815
88,62
86,27
83,807
81,282
78,743
76,224
73,745
71,304
68,884
66,451
63,979
61,446
58,839
56,152
53,387
50,546
47,637
44,668
41,639
38,544
35,376
32,129
28,807
25,422
21,994
18,548
15,108
11,697
8,334
5,032
1,801
-1,352
-4,424
-7,417
-10,328
-13,152
-15,884
-18,518
-21,05
-23,478
-25,801
-28,021
-30,14
-32,159
-34,082
-35,91
-37,643
-39,282
-40,826
-42,273
-43,622
-44,872
-46,024
-47,078
-48,037
-48,9
-49,671
-50,351
-50,944
-51,449
-51,871
-52,209
-52,466
-52,644
-52,745
-52,771
-52,723
-52,605
-52,418
-52,165
-51,85
-51,474
-51,04
-50,552
-50,012
-49,424
-48,79
-48,114
-47,4
-46,65
-45,87
-45,061
-44,229
-43,378
-42,511
-41,632
-40,745
-39,854
-38,962
-38,073
-37,191
-36,319
-35,462
-34,621
-33,802
-33,008
-32,242
-31,507
-30,806
-30,142
-29,518
-28,936
-28,397
-27,905
-27,46
-27,064
-26,718
-26,424
-26,183
-25,995
-25,859
-25,777
-25,747
-25,768
-25,839
-25,959
-26,127
-26,339
-26,595
-26,892
-27,227
-27,598
-28,002
-28,436
-28,896
-29,38
-29,884
-30,404
-30,936
-31,479
-32,028
-32,58
-33,133
-33,683
-34,227
-34,763
-35,287
-35,795
-36,285
-36,752
-37,193
-37,604
-37,982
-38,326
-38,632
-38,899
-39,126
-39,313
-39,46
-39,566
-39,631
-39,653
-39,632
-39,568
-39,459
-39,306
-39,106
-38,861
-38,57
-38,236
-37,861
-37,444
-36,986
-36,482
-35,934
-35,348
-34,729
-34,085
-33,427
-32,765
-32,119
-31,51
-30,957
-30,474
-30,074
-29,764
-29,553
-29,451
-29,462
-29,592
-29,835
-30,176
-30,597
-31,079
-31,589
-32,094
-32,551
-32,905
-33,118
-33,158
-32,989
-32,583
-31,908
-30,937
-29,661
-28,08
-26,201
-24,053
-21,67
-19,087
-16,372
-13,592
-10,816
-8,132
-5,605
-3,297
-1,306
0,268
1,321
1,764
1,548
0,643
-1,005
-3,43
-6,657
-10,711
-15,543
-21,13
-27,535
-34,726
-42,57
-50,825
-58,986
-66,477
-72,845
-77,568
-80,041
-80,002
-77,557
-73,185
-68,12
-63,75
-61,165
-61,604
-66,195
-75,128
-87,596
-101,986
-115,374
-124,164
-125,034
-114,185
-87,642
-44,717
12,051
80,365
156,22
238,92
332,398
432,611
530,288
610,839
653,323
648,183
596,284
504,75
389,262
262,382
135,699
24,102
-62,008
-115,493
-137,151
-139,336
-133,657
-127,752
-124,165
-117,866
-106,289
-91,566
-76,683
-65,978
-61,537
-62,252
-66,519
-72,742
-79,165
-84,271
-87,204
-87,485
-85,163
-80,829
-75,053
-68,32
-61,278
-54,615
-48,728
-43,819
-39,885
-36,735
-34,246
-32,35
-30,952
-29,932
-29,184
-28,644
-28,268
-28,063
-28,035
-28,14
-28,349
-28,642
-28,997
-29,414
-29,901
-30,444
-31,021
-31,606
-32,144
-32,605
-32,982
-33,257
-33,426
-33,473
-33,364
-33,085
-32,631
-31,995
-31,175
-30,163
-28,941
-27,515
-25,908
-24,147
-22,282
-20,343
-18,345
-16,304
-14,233
-12,144
-10,062
-7,997
-5,945
-3,908
-1,885
0,122
2,105
4,07
6,033
8,012
10,028
12,097
14,224
16,412
18,666
20,985
23,37
25,814
28,305
30,833
33,388
35,963
38,55
41,138
43,712
46,257
48,759
51,203
53,579
55,872
58,071
60,163
62,141
63,995
65,718
67,303
68,741
70,025
71,147
72,101
72,882
73,485
73,904
74,137
74,182
74,038
73,706
73,187
72,483
71,597
70,534
69,298
67,894
66,329
64,61
62,743
60,738
58,603
56,346
53,979
51,51
48,949
46,308
43,596
40,823
38
35,136
32,242
29,328
26,402
23,474
20,554
17,65
14,77
11,922
9,113
6,351
3,641
0,989
-1,601
-4,122
-6,571
-8,945
-11,239
-13,45
-15,576
-17,614
-19,561
-21,418
-23,181
-24,851
-26,427
-27,909
-29,296
-30,59
-31,789
-32,896
-33,91
-34,833
-35,665
-36,408
-37,063
-37,632
-38,116
-38,516
-38,836
-39,075
-39,237
-39,323
-39,336
-39,277
-39,148
-38,954
-38,695
-38,376
-38
-37,569
-37,088
-36,559
-35,987
-35,375
-34,727
-34,046
-33,337
-32,602
-31,847
-31,076
-30,291
-29,498
-28,701
-27,903
-27,109
-26,323
-25,548
-24,787
-24,046
-23,327
-22,633
-21,967
-21,333
-20,733
-20,168
-19,642
-19,154
-18,706
-18,297
-17,929
-17,601
-17,312
-17,061
-16,847
-16,67
-16,527
-16,418
-16,34
-16,292
-16,272
-16,279
-16,309
-16,361
-16,432
-16,521
-16,625
-16,742
-16,87
-17,006
-17,149
-17,296
-17,446
-17,597
-17,746
-17,893
-18,038
-18,178
-18,316
-18,452
-18,586
-18,72
-18,855
-18,995
-19,139
-19,291
-19,452
-19,625
-19,81
-20,009
-20,222
-20,45
-20,694
-20,953
-21,228
-21,518
-21,823
-22,143
-22,479
-22,831
-23,197
-23,578
-23,97
-24,372
-24,78
-25,192
-25,604
-26,013
-26,412
-26,797
-27,165
-27,51
-27,825
-28,101
-28,326
-28,489
-28,586
-28,613
-28,57
-28,461
-28,291
-28,072
-27,824
-27,564
-27,309
-27,071
-26,854
-26,663
-26,506
-26,395
-26,349
-26,381
-26,488
-26,661
-26,885
-27,132
-27,368
-27,542
-27,586
-27,429
-27,015
-26,303
-25,273
-23,914
-22,209
-20,139
-17,677
-14,803
-11,524
-7,865
-3,863
0,432
4,946
9,581
14,203
18,667
22,852
26,658
30,019
32,878
35,171
36,823
37,739
37,818
36,99
35,204
32,435
28,693
24
18,395
11,97
4,827
-2,941
-11,222
-19,979
-29,238
-38,9
-48,742
-58,372
-67,18
-74,609
-80,266
-83,672
-84,326
-82,122
-77,258
-70,473
-63,205
-56,699
-51,875
-49,681
-50,686
-54,562
-60,362
-66,139
-68,8
-65,341
-52,769
-28,029
10,91
63,271
125,958
195,315
267,595
342,73
422,064
501,818
572,894
620,809
631,892
600,22
530,468
435,723
327,187
217,327
117,079
31,351
-30,135
-65,197
-81,951
-85,627
-85,377
-86,505
-84,851
-79,607
-71,74
-62,55
-56,349
-55,223
-58,302
-64,294
-71,647
-78,728
-84,118
-87,019
-86,953
-83,842
-78,32
-71,076
-62,647
-53,773
-45,188
-37,304
-30,396
-24,563
-19,68
-15,699
-12,637
-10,445
-9,069
-8,46
-8,552
-9,301
-10,663
-12,544
-14,825
-17,381
-20,105
-22,928
-25,817
-28,737
-31,648
-34,505
-37,23
-39,741
-41,97
-43,843
-45,3
-46,304
-46,842
-46,922
-46,579
-45,846
-44,748
-43,3
-41,493
-39,321
-36,783
-33,874
-30,619
-27,067
-23,269
-19,301
-15,25
-11,175
-7,126
-3,137
0,781
4,617
8,352
11,98
15,479
18,829
22,006
24,971
27,704
30,205
32,483
34,572
36,521
38,359
40,113
41,805
43,44
45,027
46,57
48,065
49,507
50,898
52,245
53,566
54,878
56,183
57,478
58,751
59,982
61,156
62,262
63,285
64,217
65,053
65,789
66,427
66,975
67,432
67,798
68,067
68,233
68,291
68,242
68,082
67,813
67,435
66,949
66,357
65,66
64,86
63,957
62,948
61,832
60,608
59,276
57,837
56,293
54,645
52,897
51,053
49,118
47,097
44,995
42,817
40,567
38,251
35,876
33,447
30,97
28,452
25,901
23,323
20,727
18,121
15,513
12,91
10,32
7,753
5,214
2,712
0,254
-2,153
-4,501
-6,784
-8,997
-11,132
-13,185
-15,152
-17,029
-18,813
-20,501
-22,093
-23,587
-24,984
-26,283
-27,486
-28,592
-29,605
-30,526
-31,357
-32,102
-32,763
-33,345
-33,853
-34,29
-34,662
-34,974
-35,229
-35,434
-35,594
-35,713
-35,797
-35,851
-35,879
-35,887
-35,879
-35,858
-35,829
-35,795
-35,758
-35,721
-35,684
-35,65
-35,618
-35,588
-35,561
-35,537
-35,513
-35,49
-35,465
-35,438
-35,407
-35,368
-35,321
-35,262
-35,188
-35,099
-34,99
-34,859
-34,705
-34,524
-34,314
-34,075
-33,804
-33,5
-33,161
-32,787
-32,378
-31,934
-31,455
-30,944
-30,401
-29,828
-29,23
-28,608
-27,967
-27,31
-26,642
-25,968
-25,291
-24,617
-23,952
-23,299
-22,665
-22,055
-21,473
-20,926
-20,419
-19,957
-19,545
-19,189
-18,893
-18,662
-18,502
-18,414
-18,402
-18,47
-18,62
-18,852
-19,168
-19,566
-20,045
-20,605
-21,242
-21,954
-22,736
-23,585
-24,496
-25,466
-26,488
-27,558
-28,667
-29,808
-30,971
-32,15
-33,333
-34,513
-35,678
-36,82
-37,929
-38,997
-40,016
-40,974
-41,86
-42,655
-43,348
-43,931
-44,398
-44,748
-44,983
-45,108
-45,136
-45,087
-44,977
-44,82
-44,625
-44,391
-44,122
-43,824
-43,506
-43,184
-42,869
-42,565
-42,271
-41,978
-41,669
-41,313
-40,866
-40,261
-39,44
-38,36
-36,995
-35,339
-33,397
-31,174
-28,678
-25,913
-22,882
-19,591
-16,053
-12,291
-8,346
-4,276
-0,169
3,858
7,691
11,229
14,403
17,171
19,512
21,417
22,874
23,863
24,343
24,253
23,534
22,138
20,051
17,266
13,791
9,659
4,906
-0,428
-6,301
-12,723
-19,794
-27,547
-35,891
-44,587
-53,165
-61,113
-68,041
-73,512
-76,971
-78,122
-77,035
-74,237
-70,942
-68,415
-67,502
-69,008
-73,697
-81,721
-92,434
-104,189
-114,064
-118,958
-116,071
-102,505
-75,524
-32,929
24,594
93,332
169,235
247,419
327,332
412,731
500,407
584,136
651,979
683,237
669,019
607,798
503,207
374,704
238,483
110,295
9,976
-56,867
-90,06
-96,054
-92,38
-88,594
-88,082
-90,638
-89,289
-82,287
-72,775
-63,53
-58,332
-58,378
-62,074
-67,987
-74,75
-80,835
-85,088
-86,931
-86,143
-83,008
-78,216
-72,36
-65,93
-59,55
-53,774
-48,877
-44,992
-42,051
-39,854
-38,289
-37,261
-36,652
-36,364
-36,297
-36,37
-36,535
-36,736
-36,897
-36,95
-36,833
-36,533
-36,087
-35,522
-34,869
-34,161
-33,403
-32,611
-31,792
-30,917
-29,974
-28,963
-27,882
-26,758
-25,62
-24,48
-23,348
-22,215
-21,04
-19,798
-18,463
-17,005
-15,419
-13,701
-11,861
-9,935
-7,96
-5,952
-3,93
-1,896
0,156
2,22
4,294
6,378
8,458
10,524
12,569
14,579
16,55
18,486
20,393
22,291
24,2
26,13
28,089
30,079
32,099
34,148
36,221
38,31
40,406
42,505
44,599
46,684
48,755
50,802
52,814
54,78
56,686
58,52
60,272
61,931
63,489
64,936
66,267
67,476
68,559
69,51
70,325
70,998
71,525
71,903
72,129
72,199
72,112
71,866
71,462
70,901
70,182
69,308
68,28
67,103
65,779
64,313
62,709
60,974
59,113
57,133
55,04
52,844
50,55
48,169
45,708
43,175
40,581
37,933
35,241
32,513
29,758
26,985
24,201
21,414
18,632
15,863
13,112
10,386
7,693
5,037
2,424
-0,141
-2,652
-5,106
-7,497
-9,822
-12,079
-14,262
-16,371
-18,402
-20,354
-22,224
-24,012
-25,717
-27,337
-28,873
-30,325
-31,694
-32,979
-34,183
-35,306
-36,351
-37,319
-38,213
-39,034
-39,784
-40,465
-41,079
-41,627
-42,113
-42,537
-42,902
-43,209
-43,461
-43,659
-43,806
-43,904
-43,955
-43,961
-43,924
-43,846
-43,731
-43,579
-43,396
-43,182
-42,94
-42,675
-42,388
-42,082
-41,761
-41,426
-41,08
-40,726
-40,365
-40,001
-39,634
-39,268
-38,905
-38,547
-38,196
-37,855
-37,525
-37,209
-36,91
-36,629
-36,369
-36,132
-35,921
-35,737
-35,582
-35,459
-35,368
-35,31
-35,287
-35,298
-35,343
-35,421
-35,533
-35,675
-35,849
-36,05
-36,28
-36,535
-36,814
-37,116
-37,437
-37,777
-38,132
-38,501
-38,882
-39,273
-39,671
-40,074
-40,479
-40,885
-41,288
-41,685
-42,072
-42,444
-42,797
-43,127
-43,43
-43,702
-43,939
-44,139
-44,301
-44,424
-44,508
-44,552
-44,557
-44,521
-44,445
-44,328
-44,17
-43,968
-43,723
-43,434
-43,102
-42,731
-42,323
-41,879
-41,401
-40,885
-40,334
-39,749
-39,134
-38,496
-37,841
-37,182
-36,532
-35,917
-35,355
-34,867
-34,466
-34,162
-33,961
-33,862
-33,865
-33,969
-34,169
-34,453
-34,805
-35,205
-35,63
-36,056
-36,444
-36,737
-36,88
-36,814
-36,487
-35,86
-34,907
-33,616
-31,982
-30,008
-27,705
-25,099
-22,226
-19,13
-15,862
-12,466
-9,014
-5,624
-2,426
0,436
2,827
4,658
5,842
6,286
5,915
4,65
2,42
-0,778
-4,99
-10,329
-16,765
-24,184
-32,294
-40,484
-48,165
-54,898
-60,083
-63,13
-63,95
-62,699
-60,141
-57,882
-57,238
-59,188
-64,884
-74,978
-88,985
-105,871
-123,355
-137,475
-144,624
-141,518
-124,201
-90,9
-43,164
17,359
87,492
164,792
252,316
350,456
452,862
548,482
618,429
644,364
620,609
549,258
439,753
310,226
175,064
49,647
-47,807
-110,537
-137,486
-135,929
-123,725
-110,884
-101,688
-96,245
-87,951
-75,883
-62,94
-51,407
-45,071
-44,851
-48,857
-55,574
-63,089
-69,275
-73,229
-74,621
-73,314
-69,852
-64,927
-59,07
-52,979
-47,433
-42,831
-39,337
-36,992
-35,595
-34,979
-35,054
-35,656
-36,617
-37,823
-39,173
-40,59
-42,025
-43,39
-44,577
-45,507
-46,124
-46,402
-46,344
-45,95
-45,233
-44,215
-42,929
-41,409
-39,686
-37,79
-35,75
-33,601
-31,387
-29,153
-26,942
-24,789
-22,713
-20,728
-18,835
-17,033
-15,312
-13,661
-12,063
-10,505
-8,975
-7,465
-5,967
-4,471
-2,966
-1,441
0,114
1,71
3,351
5,045
6,794
8,603
10,47
12,395
14,377
16,415
18,507
20,654
22,855
25,108
27,411
29,763
32,16
34,598
37,071
39,573
42,097
44,635
47,178
49,717
52,241
54,742
57,209
59,63
61,996
64,295
66,516
68,649
70,684
72,61
74,418
76,099
77,644
79,045
80,296
81,389
82,32
83,082
83,67
84,082
84,312
84,359
84,221
83,894
83,381
82,679
81,792
80,721
79,47
78,042
76,443
74,678
72,754
70,678
68,457
66,1
63,615
61,012
58,301
55,49
52,59
49,612
46,565
43,461
40,308
37,117
33,899
30,662
27,418
24,175
20,944
17,733
14,554
11,414
8,323
5,289
2,322
-0,572
-3,385
-6,109
-8,739
-11,268
-13,692
-16,005
-18,203
-20,283
-22,241
-24,075
-25,783
-27,364
-28,817
-30,142
-31,34
-32,411
-33,356
-34,178
-34,878
-35,459
-35,924
-36,275
-36,517
-36,652
-36,687
-36,625
-36,471
-36,231
-35,909
-35,512
-35,044
-34,511
-33,918
-33,272
-32,578
-31,842
-31,069
-30,266
-29,436
-28,587
-27,723
-26,849
-25,97
-25,091
-24,216
-23,348
-22,492
-21,652
-20,829
-20,028
-19,252
-18,502
-17,781
-17,091
-16,434
-15,811
-15,222
-14,67
-14,155
-13,679
-13,242
-12,846
-12,49
-12,177
-11,906
-11,677
-11,491
-11,347
-11,244
-11,183
-11,161
-11,177
-11,228
-11,313
-11,428
-11,572
-11,742
-11,936
-12,15
-12,384
-12,634
-12,9
-13,179
-13,467
-13,761
-14,056
-14,35
-14,64
-14,922
-15,19
-15,441
-15,669
-15,873
-16,048
-16,188
-16,285
-16,328
-16,311
-16,236
-16,103
-15,917
-15,685
-15,414
-15,119
-14,819
-14,529
-14,259
-14,011
-13,784
-13,582
-13,415
-13,298
-13,243
-13,254
-13,321
-13,433
-13,573
-13,713
-13,817
-13,832
-13,7
-13,383
-12,861
-12,129
-11,197
-10,062
-8,713
-7,135
-5,311
-3,24
-0,937
1,585
4,295
7,144
10,061
12,948
15,709
18,277
20,609
22,686
24,499
26,022
27,201
27,973
28,256
27,989
27,135
25,654
23,508
20,672
17,144
12,949
8,144
2,733
-3,373
-10,205
-17,683
-25,57
-33,387
-40,604
-46,8
-51,527
-54,224
-54,615
-52,813
-49,371
-45,591
-42,902
-42,322
-44,85
-51,402
-62,108
-76,193
-91,897
-106,048
-115,183
-116,211
-105,7
-80,41
-38,074
20,409
90,806
168,292
247,235
327,125
412,101
498,872
581,11
645,905
670,583
645,383
570,185
450,218
306,335
157,065
16,426
-97,471
-173,222
-206,59
-198,449
-159,347
-108,621
-63,42
-34,133
-26,79
-35,239
-48,292
-59,827
-63,965
-61,469
-58,625
-57,638
-59,51
-63,282
-65,43
-64,753
-61,631
-56,576
-50,719
-44,815
-39,165
-34,248
-30,394
-27,661
-25,974
-25,178
-25,147
-25,778
-26,965
-28,56
-30,398
-32,375
-34,408
-36,423
-38,329
-40,017
-41,405
-42,444
-43,119
-43,429
-43,381
-42,987
-42,264
-41,25
-39,977
-38,479
-36,794
-34,952
-32,996
-30,969
-28,916
-26,879
-24,888
-22,962
-21,107
-19,326
-17,615
-15,966
-14,367
-12,803
-11,263
-9,737
-8,216
-6,695
-5,162
-3,608
-2,023
-0,398
1,274
2,999
4,782
6,623
8,525
10,488
12,508
14,585
16,715
18,898
21,131
23,412
25,739
28,107
30,514
32,955
35,424
37,915
40,422
42,935
45,448
47,951
50,434
52,888
55,303
57,668
59,972
62,204
64,354
66,41
68,361
70,196
71,904
73,476
74,902
76,172
77,277
78,21
78,965
79,534
79,913
80,098
80,086
79,874
79,461
78,848
78,035
77,024
75,817
74,419
72,833
71,066
69,124
67,014
64,745
62,326
59,765
57,074
54,262
51,341
48,323
45,219
42,042
38,804
35,518
32,196
28,852
25,498
22,145
18,807
15,495
12,221
8,994
5,824
2,721
-0,306
-3,25
-6,104
-8,86
-11,514
-14,059
-16,493
-18,81
-21,009
-23,088
-25,044
-26,877
-28,588
-30,176
-31,642
-32,989
-34,217
-35,331
-36,332
-37,225
-38,014
-38,702
-39,296
-39,801
-40,221
-40,564
-40,835
-41,04
-41,186
-41,279
-41,324
-41,328
-41,296
-41,234
-41,147
-41,04
-40,917
-40,783
-40,642
-40,497
-40,35
-40,205
-40,063
-39,926
-39,796
-39,674
-39,561
-39,459
-39,367
-39,287
-39,219
-39,162
-39,118
-39,085
-39,063
-39,051
-39,048
-39,053
-39,064
-39,08
-39,099
-39,119
-39,138
-39,154
-39,165
-39,169
-39,164
-39,149
-39,122
-39,082
-39,029
-38,962
-38,883
-38,792
-38,689
-38,576
-38,455
-38,327
-38,193
-38,054
-37,913
-37,77
-37,625
-37,48
-37,334
-37,186
-37,038
-36,889
-36,739
-36,586
-36,433
-36,278
-36,124
-35,97
-35,819
-35,67
-35,522
-35,376
-35,23
-35,085
-34,939
-34,79
-34,636
-34,474
-34,304
-34,122
-33,925
-33,706
-33,455
-33,167
-32,842
-32,481
-32,087
-31,669
-31,233
-30,791
-30,362
-29,963
-29,604
-29,295
-29,034
-28,825
-28,675
-28,595
-28,6
-28,695
-28,868
-29,102
-29,376
-29,659
-29,918
-30,108
-30,165
-30,038
-29,693
-29,111
-28,292
-27,226
-25,896
-24,274
-22,333
-20,063
-17,481
-14,611
-11,482
-8,142
-4,64
-1,054
2,504
5,948
9,213
12,255
15,032
17,491
19,546
21,102
22,084
22,423
22,055
20,919
18,946
16,086
12,33
7,664
2,035
-4,54
-11,95
-19,976
-28,184
-36,107
-43,372
-49,492
-53,853
-56,144
-56,445
-55,262
-53,803
-53,328
-54,69
-58,862
-66,822
-78,795
-94,057
-110,921
-126,375
-136,888
-139,379
-130,563
-106,8
-67,028
-13,163
52,666
126,494
207,804
300,998
403,68
508,065
598,489
652,003
657,898
616,815
539,002
442,22
335,324
223,586
113,164
11,509
-68,792
-120,606
-144,513
-147,61
-138,951
-121,053
-96,425
-68,577
-42,762
-29,452
-31,627
-43,93
-60,472
-72,412
-76,694
-77,749
-77,474
-77,656
-78,825
-78,194
-75,114
-70,437
-64,668
-58,987
-54,295
-50,625
-48,03
-46,607
-46,143
-46,447
-47,426
-48,909
-50,749
-52,882
-55,211
-57,618
-60,029
-62,34
-64,428
-66,206
-67,61
-68,602
-69,179
-69,344
-69,112
-68,507
-67,565
-66,321
-64,811
-63,067
-61,122
-59,017
-56,8
-54,521
-52,232
-49,97
-47,761
-45,621
-43,555
-41,564
-39,646
-37,79
-35,984
-34,218
-32,484
-30,779
-29,098
-27,436
-25,784
-24,135
-22,48
-20,815
-19,133
-17,432
-15,709
-13,963
-12,194
-10,404
-8,596
-6,769
-4,926
-3,066
-1,189
0,703
2,61
4,531
6,463
8,405
10,354
12,305
14,254
16,197
18,127
20,041
21,931
23,792
25,617
27,4
29,135
30,815
32,432
33,981
35,454
36,844
38,145
39,35
40,451
41,444
42,322
43,079
43,711
44,213
44,58
44,81
44,899
44,846
44,649
44,306
43,818
43,186
42,41
41,493
40,438
39,25
37,932
36,49
34,928
33,255
31,475
29,596
27,625
25,569
23,437
21,236
18,975
16,662
14,307
11,918
9,505
7,076
4,642
2,21
-0,209
-2,608
-4,977
-7,309
-9,595
-11,828
-14,002
-16,109
-18,145
-20,104
-21,982
-23,776
-25,482
-27,098
-28,623
-30,057
-31,397
-32,645
-33,801
-34,866
-35,84
-36,726
-37,524
-38,238
-38,869
-39,42
-39,893
-40,292
-40,62
-40,88
-41,077
-41,213
-41,294
-41,323
-41,304
-41,241
-41,139
-41,001
-40,831
-40,632
-40,407
-40,16
-39,891
-39,603
-39,298
-38,975
-38,636
-38,281
-37,909
-37,521
-37,115
-36,692
-36,252
-35,792
-35,314
-34,817
-34,301
-33,766
-33,212
-32,64
-32,052
-31,447
-30,827
-30,194
-29,549
-28,893
-28,227
-27,554
-26,875
-26,19
-25,503
-24,816
-24,129
-23,448
-22,773
-22,108
-21,457
-20,823
-20,21
-19,622
-19,064
-18,539
-18,051
-17,605
-17,203
-16,85
-16,548
-16,3
-16,108
-15,973
-15,897
-15,877
-15,912
-15,999
-16,136
-16,319
-16,544
-16,807
-17,103
-17,428
-17,781
-18,156
-18,55
-18,957
-19,37
-19,783
-20,19
-20,582
-20,95
-21,286
-21,581
-21,826
-22,014
-22,139
-22,191
-22,162
-22,038
-21,812
-21,481
-21,043
-20,499
-19,857
-19,124
-18,316
-17,459
-16,576
-15,687
-14,811
-13,959
-13,144
-12,384
-11,694
-11,085
-10,566
-10,125
-9,747
-9,415
-9,096
-8,753
-8,339
-7,787
-7,041
-6,061
-4,812
-3,277
-1,437
0,73
3,239
6,085
9,254
12,703
16,373
20,201
24,097
27,955
31,669
35,112
38,172
40,768
42,831
44,305
45,143
45,284
44,678
43,298
41,115
38,129
34,367
29,877
24,76
19,138
13,105
6,759
0,178
-6,588
-13,467
-20,419
-27,491
-34,629
-41,655
-48,27
-53,944
-58,169
-60,63
-60,977
-58,818
-54,057
-46,941
-38,182
-29,209
-21,425
-15,78
-13,244
-14,636
-20,071
-28,896
-39,372
-48,388
-52,738
-49,603
-35,726
-8,147
34,933
92,733
161,298
235,578
311,579
389,386
470,226
550,404
620,358
664,622
669,205
629,877
552,84
450,55
334,812
215,576
101,141
1,603
-70,437
-108,624
-115,728
-102,907
-84,575
-69,9
-60,359
-52,274
-43,005
-32,863
-24,09
-19,949
-21,086
-25,837
-32,515
-39,023
-43,693
-46,045
-45,83
-43,093
-38,465
-32,639
-26,243
-20,018
-14,621
-10,361
-7,374
-5,653
-5,023
-5,34
-6,482
-8,283
-10,542
-13,096
-15,823
-18,604
-21,361
-23,994
-26,374
-28,411
-30,052
-31,264
-32,049
-32,42
-32,376
-31,935
-31,125
-29,97
-28,525
-26,846
-24,976
-22,971
-20,883
-18,759
-16,656
-14,615
-12,655
-10,786
-9,009
-7,315
-5,706
-4,178
-2,72
-1,33
0,007
1,303
2,567
3,808
5,038
6,266
7,505
8,766
10,052
11,363
12,7
14,06
15,445
16,855
18,289
19,747
21,226
22,727
24,248
25,79
27,349
28,922
30,506
32,094
33,685
35,271
36,849
38,411
39,952
41,463
42,939
44,372
45,754
47,076
48,33
49,508
50,602
51,602
52,503
53,295
53,973
54,529
54,957
55,253
55,412
55,428
55,299
55,022
54,594
54,013
53,28
52,395
51,358
50,171
48,838
47,362
45,747
43,999
42,123
40,127
38,016
35,798
33,482
31,075
28,587
26,026
23,403
20,727
18,007
15,255
12,478
9,688
6,893
4,103
1,325
-1,431
-4,157
-6,847
-9,493
-12,089
-14,628
-17,106
-19,517
-21,858
-24,126
-26,317
-28,429
-30,46
-32,41
-34,277
-36,061
-37,763
-39,381
-40,919
-42,376
-43,754
-45,056
-46,283
-47,438
-48,524
-49,543
-50,499
-51,395
-52,234
-53,019
-53,753
-54,44
-55,081
-55,681
-56,241
-56,764
-57,252
-57,707
-58,13
-58,522
-58,885
-59,22
-59,527
-59,807
-60,059
-60,285
-60,483
-60,655
-60,8
-60,918
-61,009
-61,073
-61,109
-61,117
-61,098
-61,051
-60,975
-60,871
-60,737
-60,575
-60,383
-60,162
-59,911
-59,631
-59,32
-58,981
-58,613
-58,218
-57,796
-57,349
-56,879
-56,387
-55,875
-55,344
-54,798
-54,237
-53,666
-53,085
-52,499
-51,908
-51,317
-50,727
-50,141
-49,561
-48,991
-48,431
-47,884
-47,353
-46,84
-46,347
-45,876
-45,431
-45,013
-44,626
-44,272
-43,952
-43,67
-43,427
-43,224
-43,061
-42,94
-42,862
-42,826
-42,833
-42,881
-42,972
-43,105
-43,278
-43,489
-43,736
-44,018
-44,331
-44,672
-45,039
-45,429
-45,837
-46,262
-46,699
-47,146
-47,598
-48,05
-48,499
-48,938
-49,362
-49,765
-50,14
-50,481
-50,781
-51,036
-51,238
-51,385
-51,471
-51,494
-51,451
-51,341
-51,161
-50,91
-50,583
-50,18
-49,697
-49,135
-48,495
-47,778
-46,985
-46,122
-45,194
-44,21
-43,174
-42,09
-40,958
-39,776
-38,547
-37,278
-35,977
-34,655
-33,329
-32,016
-30,743
-29,539
-28,42
-27,395
-26,463
-25,62
-24,865
-24,203
-23,638
-23,18
-22,835
-22,602
-22,481
-22,46
-22,507
-22,574
-22,589
-22,476
-22,183
-21,676
-20,934
-19,95
-18,713
-17,214
-15,459
-13,451
-11,187
-8,68
-5,956
-3,062
-0,087
2,849
5,625
8,091
10,099
11,523
12,236
12,12
11,11
9,112
5,971
1,678
-3,658
-9,791
-16,208
-22,414
-28,084
-32,709
-35,658
-36,79
-36,295
-34,839
-33,897
-34,605
-37,544
-43,594
-53,448
-66,68
-82,154
-97,569
-109,135
-113,799
-109,085
-91,801
-59,345
-10,402
53,696
128,174
207,455
286,348
364,163
443,651
521,668
593,418
648,359
667,551
643,531
574,007
461,4
326,514
187,833
63,254
-25,26
-73,806
-86,741
-74,039
-55,676
-42,015
-35,464
-34,781
-33,088
-28,468
-23,161
-19,289
-19,764
-24,832
-32,481
-41,113
-48,98
-54,663
-57,79
-58,277
-56,287
-52,435
-47,357
-41,601
-35,819
-30,612
-26,281
-22,972
-20,692
-19,285
-18,634
-18,644
-19,15
-19,989
-21,015
-22,088
-23,12
-24,042
-24,767
-25,214
-25,305
-24,995
-24,274
-23,137
-21,586
-19,637
-17,319
-14,681
-11,811
-8,801
-5,748
-2,752
0,115
2,79
5,218
7,364
9,213
10,765
12,031
13,017
13,709
14,107
14,232
14,121
13,851
13,507
13,167
12,909
12,791
12,858
13,149
13,686
14,466
15,485
16,739
18,238
20,021
22,119
24,533
27,247
30,213
33,363
36,645
40,006
43,397
46,783
50,128
53,409
56,62
59,758
62,809
65,749
68,528
71,099
73,444
75,552
77,437
79,125
80,634
81,976
83,172
84,233
85,164
85,972
86,646
87,172
87,55
87,782
87,885
87,876
87,759
87,534
87,194
86,725
86,12
85,373
84,473
83,415
82,201
80,83
79,313
77,663
75,89
74
72
69,893
67,688
65,393
63,019
60,575
58,074
55,525
52,942
50,334
47,71
45,08
42,448
39,819
37,197
34,589
31,997
29,428
26,885
24,373
21,897
19,461
17,07
14,725
12,431
10,19
8,003
5,874
3,804
1,796
-0,149
-2,03
-3,843
-5,589
-7,266
-8,873
-10,409
-11,873
-13,264
-14,583
-15,829
-17,001
-18,099
-19,124
-20,074
-20,951
-21,753
-22,482
-23,139
-23,723
-24,236
-24,68
-25,056
-25,366
-25,612
-25,796
-25,92
-25,987
-26
-25,96
-25,873
-25,74
-25,564
-25,351
-25,103
-24,824
-24,518
-24,189
-23,84
-23,476
-23,099
-22,713
-22,321
-21,926
-21,532
-21,14
-20,753
-20,373
-20,003
-19,642
-19,292
-18,954
-18,629
-18,316
-18,015
-17,728
-17,452
-17,19
-16,938
-16,699
-16,469
-16,249
-16,038
-15,833
-15,635
-15,44
-15,249
-15,059
-14,869
-14,678
-14,485
-14,289
-14,089
-13,886
-13,678
-13,466
-13,251
-13,034
-12,815
-12,598
-12,383
-12,173
-11,973
-11,783
-11,608
-11,45
-11,312
-11,198
-11,11
-11,05
-11,021
-11,026
-11,066
-11,144
-11,263
-11,424
-11,628
-11,878
-12,176
-12,521
-12,914
-13,355
-13,845
-14,382
-14,966
-15,596
-16,269
-16,983
-17,734
-18,519
-19,333
-20,171
-21,026
-21,893
-22,765
-23,633
-24,493
-25,336
-26,155
-26,945
-27,698
-28,409
-29,073
-29,684
-30,236
-30,724
-31,145
-31,494
-31,769
-31,965
-32,08
-32,113
-32,065
-31,937
-31,73
-31,446
-31,09
-30,664
-30,174
-29,624
-29,019
-28,361
-27,657
-26,913
-26,137
-25,339
-24,529
-23,714
-22,905
-22,11
-21,338
-20,595
-19,884
-19,207
-18,567
-17,972
-17,438
-16,979
-16,608
-16,335
-16,17
-16,115
-16,173
-16,338
-16,592
-16,917
-17,294
-17,707
-18,145
-18,601
-19,055
-19,48
-19,84
-20,097
-20,221
-20,186
-19,967
-19,566
-18,996
-18,293
-17,514
-16,706
-15,927
-15,251
-14,761
-14,549
-14,712
-15,329
-16,508
-18,437
-21,211
-24,795
-29,019
-33,484
-37,786
-41,647
-44,702
-46,452
-46,652
-45,4
-43,241
-41,389
-41,009
-42,814
-47,481
-55,662
-67,456
-82,181
-98,06
-112,064
-121,089
-122,374
-113,148
-90,774
-52,982
-0,212
63,822
134,841
208,178
283,119
363,287
446,859
527,166
591,328
620,382
603,659
540,692
440,423
319,855
196,251
84,255
-7,258
-72,822
-112,914
-134,636
-143,686
-146,27
-145,081
-137,397
-123,102
-103,867
-83,066
-65,736
-54,214
-48,637
-48,239
-51,376
-56,679
-62,735
-67,829
-70,96
-71,794
-70,499
-67,673
-63,874
-59,559
-55,327
-51,809
-49,36
-48,088
-47,89
-48,503
-49,73
-51,424
-53,42
-55,55
-57,67
-59,665
-61,44
-62,934
-64,092
-64,866
-65,226
-65,156
-64,658
-63,75
-62,469
-60,86
-58,969
-56,838
-54,504
-52
-49,37
-46,659
-43,915
-41,186
-38,505
-35,896
-33,379
-30,967
-28,666
-26,476
-24,39
-22,391
-20,472
-18,625
-16,844
-15,125
-13,461
-11,842
-10,259
-8,705
-7,173
-5,657
-4,15
-2,646
-1,142
0,366
1,881
3,403
4,935
6,481
8,045
9,629
11,237
12,872
14,534
16,226
17,948
19,7
21,478
23,28
25,104
26,945
28,799
30,659
32,52
34,375
36,217
38,037
39,828
41,581
43,286
44,935
46,518
48,026
49,449
50,778
52,003
53,117
54,11
54,974
55,701
56,283
56,713
56,986
57,095
57,035
56,803
56,395
55,81
55,046
54,105
52,986
51,693
50,228
48,596
46,801
44,85
42,749
40,506
38,129
35,627
33,009
30,286
27,467
24,563
21,586
18,545
15,452
12,319
9,155
5,973
2,784
-0,403
-3,575
-6,723
-9,837
-12,906
-15,921
-18,875
-21,758
-24,562
-27,282
-29,911
-32,444
-34,874
-37,199
-39,414
-41,517
-43,506
-45,379
-47,134
-48,773
-50,295
-51,701
-52,991
-54,169
-55,234
-56,191
-57,04
-57,785
-58,429
-58,973
-59,422
-59,779
-60,047
-60,231
-60,333
-60,358
-60,311
-60,194
-60,012
-59,769
-59,468
-59,114
-58,711
-58,261
-57,77
-57,241
-56,678
-56,083
-55,462
-54,817
-54,152
-53,469
-52,772
-52,064
-51,346
-50,623
-49,897
-49,17
-48,446
-47,728
-47,02
-46,323
-45,642
-44,978
-44,334
-43,712
-43,114
-42,542
-41,998
-41,482
-40,997
-40,542
-40,121
-39,733
-39,379
-39,06
-38,776
-38,525
-38,307
-38,123
-37,969
-37,847
-37,753
-37,688
-37,651
-37,64
-37,656
-37,697
-37,762
-37,85
-37,959
-38,087
-38,23
-38,386
-38,552
-38,726
-38,905
-39,086
-39,269
-39,454
-39,641
-39,832
-40,029
-40,231
-40,438
-40,647
-40,859
-41,073
-41,285
-41,494
-41,7
-41,905
-42,117
-42,343
-42,58
-42,825
-43,07
-43,3
-43,504
-43,672
-43,784
-43,831
-43,806
-43,712
-43,563
-43,377
-43,161
-42,914
-42,626
-42,278
-41,873
-41,419
-40,926
-40,423
-39,938
-39,504
-39,178
-39,012
-39,031
-39,244
-39,626
-40,131
-40,734
-41,417
-42,178
-43,026
-43,947
-44,919
-45,917
-46,892
-47,785
-48,518
-48,971
-49,022
-48,586
-47,601
-46,06
-44,001
-41,449
-38,423
-34,942
-31
-26,612
-21,807
-16,618
-11,103
-5,343
0,556
6,436
12,116
17,442
22,272
26,515
30,145
33,124
35,429
37,022
37,816
37,736
36,725
34,738
31,779
27,865
22,988
17,206
10,626
3,339
-4,505
-12,84
-21,772
-31,271
-41,15
-51,155
-60,781
-69,476
-76,872
-82,464
-85,55
-85,894
-83,762
-79,621
-74,524
-69,901
-66,985
-67
-71,451
-79,702
-88,557
-96,748
-103,211
-107,576
-112,958
-115,187
-103,653
-70,967
-10,339
76,304
175,574
278,403
380,832
479,426
572,46
651,96
700,912
704,252
656,925
560,657
425,599
271,645
115,087
-25,446
-128,706
-190,179
-210,834
-199,097
-174,097
-142,083
-107,902
-78,124
-52,3
-38,199
-39,228
-48,452
-61,909
-72,078
-74,922
-75,171
-74,762
-74,753
-75,567
-74,279
-69,876
-63,223
-54,987
-46,302
-38,017
-30,36
-23,503
-17,618
-12,657
-8,442
-4,892
-1,962
0,379
2,114
3,257
3,873
4,013
3,716
3,051
2,1
0,929
-0,392
-1,819
-3,325
-4,876
-6,432
-7,933
-9,303
-10,465
-11,346
-11,895
-12,09
-11,922
-11,397
-10,531
-9,348
-7,875
-6,142
-4,168
-1,966
0,442
3,032
5,76
8,566
11,395
14,2
16,943
19,599
22,152
24,587
26,902
29,105
31,203
33,21
35,132
36,97
38,733
40,433
42,086
43,719
45,351
46,995
48,664
50,365
52,103
53,882
55,701
57,551
59,427
61,322
63,233
65,157
67,089
69,022
70,95
72,863
74,754
76,615
78,438
80,216
81,94
83,602
85,195
86,711
88,144
89,485
90,724
91,852
92,86
93,738
94,478
95,072
95,511
95,787
95,896
95,831
95,587
95,161
94,549
93,748
92,758
91,577
90,206
88,646
86,898
84,967
82,855
80,569
78,113
75,495
72,722
69,804
66,75
63,572
60,279
56,886
53,403
49,845
46,225
42,557
38,855
35,132
31,404
27,683
23,983
20,318
16,7
13,141
9,652
6,245
2,93
-0,284
-3,388
-6,373
-9,232
-11,958
-14,546
-16,99
-19,285
-21,428
-23,417
-25,25
-26,926
-28,446
-29,81
-31,021
-32,082
-32,995
-33,765
-34,397
-34,896
-35,267
-35,517
-35,652
-35,679
-35,604
-35,433
-35,175
-34,835
-34,419
-33,936
-33,39
-32,788
-32,136
-31,44
-30,704
-29,936
-29,139
-28,319
-27,481
-26,629
-25,768
-24,902
-24,035
-23,17
-22,31
-21,46
-20,62
-19,794
-18,984
-18,193
-17,422
-16,673
-15,948
-15,25
-14,581
-13,943
-13,336
-12,764
-12,228
-11,728
-11,267
-10,846
-10,466
-10,128
-9,834
-9,584
-9,381
-9,225
-9,118
-9,059
-9,05
-9,091
-9,181
-9,321
-9,509
-9,746
-10,031
-10,362
-10,739
-11,161
-11,624
-12,128
-12,669
-13,243
-13,845
-14,47
-15,112
-15,766
-16,426
-17,087
-17,744
-18,391
-19,025
-19,642
-20,239
-20,812
-21,357
-21,868
-22,341
-22,77
-23,15
-23,477
-23,746
-23,951
-24,09
-24,163
-24,168
-24,105
-23,973
-23,767
-23,485
-23,131
-22,709
-22,227
-21,694
-21,119
-20,517
-19,913
-19,33
-18,788
-18,307
-17,892
-17,548
-17,282
-17,095
-16,989
-16,959
-16,986
-17,051
-17,141
-17,236
-17,32
-17,369
-17,334
-17,173
-16,845
-16,303
-15,529
-14,506
-13,222
-11,677
-9,882
-7,859
-5,655
-3,319
-0,885
1,605
4,122
6,624
9,036
11,28
13,26
14,86
15,988
16,57
16,553
15,9
14,564
12,515
9,748
6,256
2,064
-2,855
-8,618
-15,21
-22,481
-30,14
-37,63
-44,392
-50,063
-54,119
-55,989
-55,579
-53,065
-49,174
-45,407
-43,016
-42,899
-46,162
-53,569
-64,866
-79,077
-93,968
-106,086
-112,231
-109,261
-93,678
-62,302
-15,024
45,176
114,622
187,888
264,496
349,017
438,517
527,023
601,698
639,309
629,183
567,826
457,02
317,527
167,762
27,523
-77,139
-138,156
-155,7
-139,203
-112,422
-89,181
-75,042
-70,105
-65,355
-57,362
-47,981
-39,404
-35,913
-38,645
-45,457
-54,342
-63,005
-69,608
-73,606
-74,841
-73,367
-69,73
-64,596
-58,597
-52,459
-46,845
-42,077
-38,272
-35,427
-33,391
-32,036
-31,28
-30,988
-31,027
-31,299
-31,727
-32,264
-32,872
-33,488
-34,023
-34,387
-34,51
-34,357
-33,911
-33,168
-32,13
-30,792
-29,169
-27,294
-25,204
-22,953
-20,584
-18,129
-15,622
-13,09
-10,573
-8,123
-5,779
-3,571
-1,521
0,359
2,049
3,515
4,753
5,777
6,623
7,355
8,016
8,632
9,225
9,805
10,394
11,028
11,734
12,534
13,452
14,514
15,761
17,257
19,032
21,085
23,391
25,886
28,526
31,289
34,15
37,091
40,09
43,115
46,148
49,181
52,193
55,158
58,032
60,75
63,273
65,586
67,694
69,628
71,406
73,03
74,508
75,846
77,049
78,123
79,06
79,84
80,456
80,907
81,2
81,358
81,39
81,294
81,063
80,681
80,134
79,42
78,529
77,453
76,187
74,729
73,086
71,273
69,3
67,173
64,899
62,48
59,923
57,237
54,431
51,515
48,5
45,397
42,216
38,972
35,676
32,339
28,97
25,576
22,165
18,746
15,327
11,916
8,519
5,145
1,801
-1,505
-4,765
-7,972
-11,12
-14,203
-17,216
-20,152
-23,008
-25,779
-28,461
-31,051
-33,546
-35,942
-38,237
-40,428
-42,513
-44,489
-46,356
-48,112
-49,757
-51,289
-52,71
-54,019
-55,218
-56,307
-57,288
-58,164
-58,934
-59,602
-60,17
-60,64
-61,015
-61,3
-61,498
-61,612
-61,647
-61,607
-61,497
-61,32
-61,081
-60,784
-60,432
-60,029
-59,581
-59,09
-58,561
-57,999
-57,407
-56,789
-56,15
-55,494
-54,824
-54,145
-53,46
-52,772
-52,085
-51,402
-50,726
-50,06
-49,406
-48,767
-48,145
-47,542
-46,96
-46,4
-45,863
-45,351
-44,864
-44,404
-43,97
-43,564
-43,187
-42,84
-42,525
-42,242
-41,993
-41,779
-41,599
-41,456
-41,349
-41,279
-41,246
-41,249
-41,289
-41,362
-41,468
-41,605
-41,77
-41,963
-42,181
-42,42
-42,68
-42,96
-43,258
-43,571
-43,896
-44,23
-44,57
-44,913
-45,255
-45,591
-45,916
-46,225
-46,513
-46,778
-47,015
-47,216
-47,376
-47,482
-47,531
-47,521
-47,454
-47,334
-47,165
-46,955
-46,717
-46,471
-46,232
-46,007
-45,805
-45,624
-45,472
-45,361
-45,303
-45,306
-45,373
-45,492
-45,645
-45,815
-45,966
-46,058
-46,048
-45,876
-45,501
-44,906
-44,078
-43,015
-41,712
-40,143
-38,287
-36,139
-33,697
-30,98
-28,028
-24,875
-21,588
-18,257
-14,962
-11,804
-8,863
-6,174
-3,771
-1,681
0,063
1,379
2,178
2,391
1,963
0,871
-0,886
-3,333
-6,46
-10,228
-14,62
-19,562
-25,044
-31,167
-37,905
-45,138
-52,607
-59,763
-66,032
-71,009
-74,157
-74,947
-73,345
-69,554
-64,305
-59,101
-55,264
-53,845
-55,997
-62,357
-72,464
-85,268
-98,663
-109,12
-113,197
-107,554
-88,618
-55,01
-8,073
50,616
119,104
197,355
286,781
383,776
478,246
553,612
594,335
594,584
558,422
498,441
424,28
337,819
239,822
133,064
29,662
-52,763
-102,74
-119,522
-114,923
-103,381
-93,73
-87,902
-81,071
-70,417
-57,418
-44,814
-36,477
-33,916
-35,937
-41,087
-47,761
-54,295
-59,474
-62,601
-63,376
-62,056
-59,274
-55,608
-51,552
-47,668
-44,465
-42,206
-40,998
-40,763
-41,282
-42,396
-43,969
-45,849
-47,895
-49,995
-52,046
-53,969
-55,7
-57,156
-58,269
-58,999
-59,318
-59,223
-58,723
-57,835
-56,588
-55,019
-53,168
-51,069
-48,757
-46,266
-43,635
-40,91
-38,136
-35,358
-32,608
-29,912
-27,285
-24,737
-22,272
-19,888
-17,579
-15,333
-13,144
-11,006
-8,914
-6,865
-4,851
-2,866
-0,902
1,05
2,995
4,938
6,885
8,838
10,8
12,771
14,752
16,742
18,74
20,747
22,765
24,792
26,831
28,879
30,936
33
35,071
37,144
39,217
41,284
43,341
45,382
47,401
49,393
51,35
53,264
55,127
56,931
58,668
60,327
61,9
63,377
64,75
66,011
67,15
68,16
69,033
69,764
70,345
70,772
71,039
71,144
71,082
70,852
70,451
69,88
69,138
68,226
67,147
65,901
64,494
62,928
61,209
59,343
57,335
55,192
52,924
50,537
48,041
45,446
42,761
39,997
37,165
34,276
31,34
28,37
25,375
22,366
19,355
16,352
13,366
10,407
7,484
4,606
1,781
-0,983
-3,68
-6,304
-8,847
-11,305
-13,673
-15,946
-18,121
-20,193
-22,161
-24,022
-25,775
-27,417
-28,949
-30,37
-31,681
-32,883
-33,978
-34,967
-35,854
-36,64
-37,33
-37,926
-38,432
-38,853
-39,193
-39,455
-39,644
-39,766
-39,823
-39,822
-39,765
-39,657
-39,503
-39,307
-39,072
-38,804
-38,505
-38,179
-37,83
-37,461
-37,075
-36,676
-36,266
-35,848
-35,425
-34,997
-34,569
-34,14
-33,714
-33,291
-32,873
-32,461
-32,056
-31,659
-31,272
-30,893
-30,525
-30,166
-29,817
-29,479
-29,15
-28,83
-28,52
-28,219
-27,926
-27,642
-27,365
-27,095
-26,833
-26,577
-26,329
-26,087
-25,853
-25,626
-25,408
-25,198
-24,998
-24,808
-24,628
-24,461
-24,304
-24,159
-24,025
-23,901
-23,785
-23,678
-23,578
-23,484
-23,396
-23,314
-23,238
-23,168
-23,105
-23,047
-22,994
-22,943
-22,894
-22,845
-22,795
-22,743
-22,686
-22,62
-22,547
-22,464
-22,369
-22,256
-22,116
-21,945
-21,744
-21,513
-21,259
-20,987
-20,705
-20,425
-20,167
-19,947
-19,782
-19,681
-19,645
-19,682
-19,803
-20,019
-20,349
-20,796
-21,343
-21,971
-22,657
-23,37
-24,081
-24,737
-25,267
-25,612
-25,733
-25,597
-25,19
-24,482
-23,428
-21,989
-20,128
-17,837
-15,141
-12,069
-8,652
-4,94
-0,993
3,098
7,199
11,209
15,057
18,666
21,96
24,829
27,127
28,733
29,569
29,568
28,672
26,827
23,964
20,03
15,042
8,984
1,795
-6,464
-15,65
-25,426
-35,143
-44,152
-51,936
-57,841
-61,222
-61,983
-60,377
-57,329
-54,66
-53,917
-56,246
-62,936
-74,755
-91,174
-110,881
-131,163
-147,489
-155,722
-152,112
-132,267
-94,268
-39,544
30,231
111,2
201,52
304,189
416,697
531,573
633,145
698,493
716,049
684,01
612,511
520,193
413,883
298,727
179,465
61,245
-36,755
-100,596
-127,094
-121,53
-102,842
-85,144
-73,617
-68,309
-63,075
-55,885
-48,733
-43,641
-43,443
-48,254
-55,988
-64,987
-73,268
-79,157
-82,153
-82,1
-79,205
-74,219
-67,887
-60,851
-53,859
-47,568
-42,305
-38,221
-35,304
-33,38
-32,318
-32,014
-32,313
-33,078
-34,193
-35,556
-37,093
-38,73
-40,361
-41,871
-43,146
-44,103
-44,701
-44,921
-44,757
-44,22
-43,322
-42,094
-40,577
-38,81
-36,83
-34,678
-32,391
-30,012
-27,591
-25,176
-22,813
-20,536
-18,36
-16,295
-14,342
-12,496
-10,749
-9,09
-7,5
-5,966
-4,479
-3,028
-1,605
-0,203
1,19
2,584
3,988
5,41
6,854
8,325
9,825
11,356
12,918
14,511
16,131
17,78
19,454
21,155
22,882
24,633
26,407
28,2
30,011
31,836
33,669
35,507
37,341
39,167
40,977
42,763
44,517
46,233
47,901
49,514
51,063
52,54
53,938
55,249
56,465
57,58
58,587
59,479
60,251
60,898
61,415
61,797
62,041
62,145
62,105
61,92
61,589
61,111
60,488
59,719
58,807
57,753
56,561
55,234
53,777
52,194
50,491
48,674
46,75
44,725
42,607
40,404
38,123
35,773
33,362
30,898
28,39
25,846
23,275
20,686
18,087
15,486
12,891
10,311
7,751
5,22
2,724
0,27
-2,137
-4,491
-6,787
-9,02
-11,186
-13,281
-15,301
-17,244
-19,107
-20,888
-22,586
-24,198
-25,723
-27,163
-28,515
-29,782
-30,962
-32,059
-33,072
-34,005
-34,86
-35,639
-36,345
-36,981
-37,552
-38,059
-38,508
-38,901
-39,241
-39,533
-39,779
-39,983
-40,147
-40,275
-40,369
-40,43
-40,463
-40,468
-40,447
-40,403
-40,338
-40,253
-40,15
-40,032
-39,9
-39,756
-39,603
-39,441
-39,272
-39,099
-38,921
-38,74
-38,558
-38,373
-38,188
-38,002
-37,816
-37,631
-37,446
-37,263
-37,081
-36,902
-36,727
-36,556
-36,392
-36,237
-36,091
-35,958
-35,839
-35,735
-35,65
-35,585
-35,54
-35,517
-35,516
-35,535
-35,574
-35,632
-35,707
-35,799
-35,905
-36,024
-36,154
-36,295
-36,445
-36,602
-36,761
-36,919
-37,073
-37,219
-37,353
-37,469
-37,561
-37,624
-37,655
-37,647
-37,595
-37,489
-37,315
-37,068
-36,743
-36,338
-35,854
-35,295
-34,667
-33,983
-33,264
-32,528
-31,791
-31,062
-30,345
-29,65
-28,987
-28,37
-27,813
-27,319
-26,881
-26,489
-26,127
-25,769
-25,377
-24,897
-24,262
-23,422
-22,341
-20,996
-19,379
-17,482
-15,294
-12,812
-10,039
-6,989
-3,69
-0,173
3,519
7,316
11,134
14,858
18,368
21,574
24,41
26,826
28,787
30,268
31,241
31,695
31,616
30,964
29,711
27,826
25,308
22,205
18,577
14,483
9,986
5,133
-0,033
-5,451
-11,13
-17,18
-23,617
-30,343
-37,155
-43,663
-49,519
-54,464
-58,078
-59,776
-59,292
-56,776
-52,653
-47,771
-43,016
-39,206
-37,61
-39,675
-44,923
-50,883
-55,209
-56,078
-55,477
-57,866
-62,844
-64,432
-51,516
-12,165
58,025
154,714
268,444
388,352
503,402
602,742
674,17
705,62
691,412
632,974
538,071
418,572
286,192
154,765
40,813
-42,074
-86,263
-95,497
-85,542
-71,345
-61,88
-58,58
-54,598
-46
-34,252
-22,45
-15,29
-14,746
-19,325
-27,094
-36,154
-44,712
-51,512
-55,862
-57,399
-56,322
-53,326
-49,101
-44,256
-39,45
-35,258
-31,978
-29,732
-28,452
-27,903
-27,9
-28,293
-28,916
-29,638
-30,376
-31,075
-31,711
-32,254
-32,632
-32,755
-32,564
-32,029
-31,148
-29,948
-28,474
-26,785
-24,971
-23,116
-21,286
-19,519
-17,826
-16,2
-14,624
-13,094
-11,623
-10,228
-8,921
-7,707
-6,58
-5,526
-4,519
-3,519
-2,468
-1,311
-0,007
1,459
3,086
4,85
6,717
8,661
10,659
12,696
14,764
16,858
18,977
21,121
23,289
25,473
27,652
29,81
31,929
34,005
36,041
38,046
40,039
42,032
44,041
46,073
48,133
50,219
52,325
54,442
56,556
58,659
60,742
62,797
64,82
66,802
68,732
70,601
72,395
74,102
75,708
77,202
78,572
79,808
80,902
81,848
82,64
83,274
83,747
84,053
84,189
84,151
83,938
83,546
82,974
82,221
81,289
80,179
78,895
77,439
75,819
74,04
72,108
70,032
67,819
65,477
63,017
60,448
57,778
55,019
52,18
49,272
46,307
43,295
40,246
37,172
34,083
30,989
27,9
24,826
21,774
18,754
15,774
12,841
9,963
7,148
4,402
1,73
-0,862
-3,369
-5,786
-8,112
-10,342
-12,476
-14,51
-16,445
-18,279
-20,011
-21,641
-23,169
-24,597
-25,924
-27,151
-28,28
-29,313
-30,251
-31,098
-31,853
-32,521
-33,103
-33,601
-34,017
-34,354
-34,614
-34,799
-34,911
-34,954
-34,929
-34,84
-34,689
-34,478
-34,211
-33,89
-33,519
-33,099
-32,634
-32,127
-31,58
-30,996
-30,38
-29,734
-29,062
-28,366
-27,652
-26,922
-26,179
-25,428
-24,67
-23,911
-23,153
-22,4
-21,657
-20,927
-20,215
-19,523
-18,857
-18,22
-17,616
-17,047
-16,517
-16,027
-15,58
-15,176
-14,815
-14,497
-14,223
-13,992
-13,802
-13,653
-13,544
-13,473
-13,441
-13,443
-13,479
-13,543
-13,631
-13,739
-13,862
-13,995
-14,133
-14,269
-14,397
-14,513
-14,613
-14,691
-14,737
-14,739
-14,688
-14,58
-14,413
-14,188
-13,912
-13,591
-13,239
-12,879
-12,532
-12,218
-11,951
-11,735
-11,575
-11,483
-11,472
-11,562
-11,761
-12,06
-12,446
-12,904
-13,405
-13,916
-14,384
-14,729
-14,883
-14,794
-14,426
-13,769
-12,808
-11,523
-9,894
-7,903
-5,552
-2,873
0,094
3,311
6,714
10,221
13,725
17,07
20,125
22,791
24,991
26,677
27,796
28,286
28,07
27,071
25,23
22,515
18,91
14,43
9,101
2,94
-3,971
-11,504
-19,566
-28,046
-36,925
-46,308
-56,13
-66,167
-76,109
-85,448
-93,705
-100,573
-105,528
-107,901
-107,547
-104,759
-100,21
-95,094
-90,635
-87,859
-87,857
-91,879
-99,074
-106,342
-112,081
-114,912
-114,977
-115,675
-113,19
-97,933
-63,328
-2,779
81,026
174,015
268,422
360,85
447,032
527,884
595,629
630,778
622,869
564,933
457,197
319,19
168,513
24,499
-89,17
-165,19
-202,305
-207,452
-200,333
-191,733
-185,899
-182,949
-175,019
-160,127
-141,942
-123,893
-110,76
-104,421
-103,394
-106,154
-111,139
-116,548
-120,917
-123,441
-123,762
-122,056
-118,958
-115,022
-110,663
-106,475
-103,073
-100,752
-99,609
-99,524
-100,188
-101,375
-102,924
-104,634
-106,299
-107,745
-108,811
-109,381
-109,405
-108,837
-107,635
-105,786
-103,283
-100,15
-96,442
-92,225
-87,566
-82,525
-77,155
-71,501
-65,61
-59,534
