Nom
Date de naissance
Date d’enregistrement,2022-02-27 15:55:20 +0100
Classification,Rythme sinusal
Symptômes,
Version du logiciel,1.52
Appareil,"Watch5,1"
Fréquence d’échantillonnage,511,242 hertz


Dérivation,Dérivation DI
Unité,µV

1070,042
1080,227
1132,085
1007,122
884,95
897,885
1000,488
1048,316
1020,845
987,055
962,567
931,691
898,396
869,887
845,227
822,298
800,041
777,693
754,041
727,784
698,343
665,571
629,915
592,248
553,245
513,527
473,95
435,351
398,222
362,808
329,057
296,728
265,677
235,77
206,811
178,605
150,968
123,763
96,919
70,384
44,081
17,914
-8,214
-34,377
-60,611
-86,929
-113,323
-139,78
-166,287
-192,807
-219,292
-245,705
-272,004
-298,177
-324,235
-350,163
-375,932
-401,5
-426,816
-451,835
-476,527
-500,852
-524,766
-548,229
-571,201
-593,661
-615,594
-636,971
-657,748
-677,859
-697,22
-715,774
-733,494
-750,379
-766,444
-781,719
-796,235
-810,044
-823,235
-835,918
-848,199
-860,185
-871,992
-883,722
-895,528
-907,658
-920,246
-933,308
-946,734
-960,185
-973,321
-985,948
-997,725
-1008,178
-1017,239
-1025,109
-1032,394
-1040,402
-1050,182
-1062,337
-1077,737
-1097,074
-1120,034
-1145,68
-1172,021
-1195,734
-1214,116
-1224,78
-1224,57
-1210,844
-1182,086
-1139,193
-1086,393
-1028,808
-971,072
-913,346
-852,451
-789,247
-726,472
-675,856
-657,506
-684,558
-765,808
-895,012
-1046,989
-1194,288
-1308,34
-1373,933
-1395,635
-1387,811
-1372,215
-1362,793
-1362,469
-1368,259
-1371,706
-1369,781
-1364,501
-1358,558
-1356,196
-1358,689
-1364,369
-1371,659
-1378,634
-1383,465
-1385,55
-1384,701
-1380,82
-1374,383
-1365,99
-1356,163
-1345,613
-1335,095
-1325,041
-1315,688
-1307,174
-1299,456
-1292,51
-1286,371
-1281
-1276,322
-1272,279
-1268,817
-1265,887
-1263,453
-1261,435
-1259,711
-1258,154
-1256,655
-1255,127
-1253,497
-1251,692
-1249,619
-1247,198
-1244,366
-1241,069
-1237,274
-1232,965
-1228,129
-1222,77
-1216,913
-1210,592
-1203,857
-1196,768
-1189,366
-1181,695
-1173,798
-1165,72
-1157,521
-1149,253
-1140,95
-1132,646
-1124,364
-1116,121
-1107,938
-1099,821
-1091,767
-1083,771
-1075,827
-1067,921
-1060,052
-1052,213
-1044,392
-1036,576
-1028,747
-1020,891
-1013,003
-1005,08
-997,119
-989,123
-981,092
-973,032
-964,955
-956,87
-948,785
-940,71
-932,651
-924,616
-916,617
-908,665
-900,773
-892,952
-885,212
-877,563
-870,017
-862,582
-855,268
-848,082
-841,031
-834,121
-827,361
-820,757
-814,317
-808,047
-801,954
-796,043
-790,318
-784,785
-779,446
-774,304
-769,359
-764,613
-760,064
-755,714
-751,559
-747,599
-743,829
-740,247
-736,849
-733,628
-730,578
-727,691
-724,961
-722,378
-719,932
-717,615
-715,415
-713,321
-711,323
-709,409
-707,568
-705,789
-704,06
-702,368
-700,704
-699,055
-697,411
-695,761
-694,094
-692,402
-690,674
-688,902
-687,079
-685,195
-683,245
-681,222
-679,119
-676,932
-674,655
-672,285
-669,819
-667,253
-664,586
-661,819
-658,95
-655,981
-652,913
-649,75
-646,495
-643,15
-639,72
-636,211
-632,628
-628,976
-625,261
-621,49
-617,67
-613,807
-609,907
-605,979
-602,028
-598,06
-594,083
-590,102
-586,123
-582,151
-578,192
-574,251
-570,333
-566,441
-562,579
-558,752
-554,961
-551,208
-547,495
-543,822
-540,19
-536,597
-533,042
-529,523
-526,037
-522,581
-519,151
-515,743
-512,351
-508,969
-505,592
-502,213
-498,825
-495,422
-491,996
-488,539
-485,045
-481,507
-477,918
-474,271
-470,558
-466,776
-462,916
-458,973
-454,942
-450,818
-446,597
-442,274
-437,846
-433,31
-428,664
-423,907
-419,038
-414,056
-408,961
-403,756
-398,441
-393,018
-387,492
-381,865
-376,142
-370,328
-364,428
-358,449
-352,398
-346,281
-340,106
-333,88
-327,612
-321,309
-314,979
-308,631
-302,271
-295,908
-289,549
-283,203
-276,875
-270,574
-264,305
-258,075
-251,889
-245,754
-239,674
-233,653
-227,697
-221,808
-215,991
-210,249
-204,584
-198,998
-193,493
-188,071
-182,732
-177,476
-172,303
-167,213
-162,205
-157,278
-152,429
-147,657
-142,961
-138,336
-133,782
-129,295
-124,874
-120,516
-116,217
-111,978
-107,794
-103,665
-99,59
-95,566
-91,593
-87,669
-83,795
-79,968
-76,188
-72,454
-68,766
-65,122
-61,523
-57,967
-54,454
-50,983
-47,553
-44,164
-40,813
-37,501
-34,224
-30,982
-27,773
-24,595
-21,446
-18,323
-15,226
-12,15
-9,093
-6,052
-3,022
0,001
3,021
6,045
9,078
12,128
15,2
18,302
21,44
24,621
27,85
31,134
34,477
37,884
41,361
44,911
48,54
52,251
56,049
59,937
63,917
67,989
72,152
76,403
80,739
85,159
89,658
94,234
98,884
103,607
108,407
113,279
118,217
123,208
128,237
133,281
138,323
143,345
148,326
153,254
158,116
162,902
167,611
172,238
176,774
181,206
185,514
189,684
193,723
197,649
201,498
205,319
209,157
213,059
217,078
221,257
225,624
230,201
234,987
239,971
245,148
250,519
256,082
261,812
267,65
273,506
279,267
284,819
290,041
294,787
298,898
302,223
304,623
306,016
306,317
305,395
303,23
299,911
295,658
290,936
286,223
281,878
278,426
276,484
276,257
277,673
280,22
282,68
284,085
283,861
281,131
275,19
266,303
255,403
244,561
237,138
235,842
243,024
261,821
294,816
343,247
405,91
478,247
554,907
632,443
710,891
790,801
868,432
934,85
976,092
980,71
945,145
874,162
780,296
674,945
569,816
475,909
398,988
347,147
321,132
312,916
316,633
322,652
325,733
328,936
332,247
335,956
339,93
340,519
336,537
329,187
319,738
310,347
303,061
298,546
296,991
298,506
302,676
308,885
316,548
324,868
332,971
340,357
346,783
352,109
356,407
359,752
362,158
363,731
364,613
364,912
364,733
364,17
363,275
362,133
360,863
359,583
358,414
357,464
356,792
356,429
356,397
356,697
357,323
358,262
359,478
360,929
362,57
364,359
366,253
368,212
370,188
372,13
373,988
375,721
377,302
378,722
379,975
381,063
381,991
382,77
383,415
383,947
384,383
384,736
385,021
385,25
385,44
385,607
385,767
385,935
386,125
386,347
386,612
386,929
387,306
387,748
388,263
388,853
389,523
390,281
391,13
392,075
393,12
394,268
395,52
396,876
398,336
399,896
401,552
403,299
405,129
407,036
409,009
411,038
413,113
415,222
417,352
419,49
421,622
423,733
425,809
427,835
429,796
431,678
433,466
435,147
436,707
438,132
439,41
440,528
441,474
442,237
442,806
443,17
443,32
443,248
442,946
442,408
441,628
440,604
439,332
437,811
436,041
434,023
431,758
429,251
426,507
423,531
420,331
416,916
413,294
409,478
405,477
401,303
396,97
392,487
387,869
383,128
378,276
373,327
368,293
363,188
358,026
352,821
347,587
342,337
337,086
331,846
326,63
321,451
316,32
311,251
306,252
301,336
296,512
291,791
287,181
282,69
278,325
274,091
269,992
266,032
262,21
258,528
254,985
251,579
248,311
245,179
242,183
239,32
236,591
233,995
231,53
229,193
226,979
224,883
222,897
221,014
219,227
217,528
215,907
214,356
212,87
211,444
210,073
208,75
207,463
206,197
204,944
203,698
202,454
201,208
199,96
198,716
197,491
196,308
195,185
194,126
193,132
192,193
191,299
190,443
189,613
188,797
187,978
187,141
186,277
185,386
184,454
183,453
182,334
181,029
179,497
177,715
175,673
173,378
170,839
168,08
165,154
162,127
159,06
156,001
152,975
149,996
147,093
144,319
141,753
139,488
137,581
136,074
135
134,378
134,22
134,499
135,133
136,016
137,056
138,192
139,39
140,628
141,866
143,048
144,103
144,959
145,57
145,892
145,877
145,478
144,659
143,43
141,867
140,06
138,081
135,977
133,769
131,473
129,123
126,752
124,388
122,053
119,758
117,526
115,396
113,408
111,595
109,957
108,451
107,031
105,665
104,332
103,025
101,735
100,443
99,139
97,831
96,526
95,236
93,96
92,682
91,387
90,063
88,709
87,34
85,968
84,598
83,234
81,878
80,533
79,206
77,893
76,583
75,265
73,927
72,563
71,172
69,755
68,309
66,834
65,328
63,79
62,223
60,627
59,002
57,347
55,661
53,946
52,203
50,438
48,654
46,856
45,05
43,239
41,431
39,632
37,846
36,082
34,345
32,641
30,976
29,36
27,803
26,323
24,931
23,636
22,442
21,352
20,362
19,469
18,662
17,918
17,219
16,545
15,881
15,22
14,553
13,866
13,141
12,357
11,503
10,583
9,614
8,612
7,605
6,63
5,744
5,03
4,565
4,414
4,624
5,233
6,278
7,805
9,856
12,465
15,643
19,372
23,617
28,332
33,455
38,899
44,533
50,188
55,693
60,901
65,681
69,896
73,396
76,013
77,603
78,059
77,294
75,238
71,818
66,971
60,663
52,932
43,841
33,426
21,82
9,253
-3,917
-17,087
-29,62
-40,995
-50,65
-57,979
-62,693
-64,839
-64,917
-64,177
-63,865
-64,903
-68,264
-74,713
-84,293
-96,307
-108,976
-119,07
-123,341
-118,941
-102,663
-71,99
-25,675
36,641
112,061
195,541
283,517
370,774
453,866
529,987
589,771
626,435
633,488
605,224
548,171
469,934
378,445
284,52
191,726
103,179
24,197
-42,314
-92,673
-124,833
-140,118
-140,948
-130,955
-114,174
-94,762
-76,777
-62,851
-54,326
-51,542
-53,788
-59,898
-68,58
-77,988
-86,214
-92,226
-95,585
-96,341
-95,03
-92,188
-88,324
-84,17
-80,425
-77,435
-75,322
-73,999
-73,228
-72,848
-72,725
-72,683
-72,563
-72,251
-71,693
-70,89
-69,867
-68,647
-67,252
-65,705
-64,068
-62,419
-60,825
-59,36
-58,09
-57,071
-56,368
-56,03
-56,073
-56,508
-57,327
-58,498
-59,989
-61,737
-63,651
-65,648
-67,638
-69,532
-71,268
-72,779
-74,004
-74,902
-75,433
-75,571
-75,315
-74,667
-73,629
-72,226
-70,489
-68,466
-66,228
-63,836
-61,341
-58,789
-56,21
-53,632
-51,081
-48,57
-46,105
-43,688
-41,318
-38,992
-36,715
-34,483
-32,286
-30,112
-27,938
-25,752
-23,547
-21,321
-19,078
-16,821
-14,558
-12,3
-10,064
-7,867
-5,723
-3,643
-1,637
0,285
2,109
3,825
5,42
6,886
8,215
9,403
10,442
11,331
12,066
12,648
13,079
13,359
13,491
13,474
13,311
13,005
12,557
11,972
11,252
10,402
9,426
8,329
7,116
5,794
4,366
2,838
1,214
-0,5
-2,299
-4,179
-6,135
-8,162
-10,258
-12,417
-14,636
-16,911
-19,241
-21,623
-24,055
-26,535
-29,061
-31,632
-34,245
-36,901
-39,598
-42,334
-45,107
-47,917
-50,762
-53,641
-56,55
-59,489
-62,454
-65,442
-68,449
-71,471
-74,503
-77,539
-80,573
-83,598
-86,607
-89,594
-92,551
-95,469
-98,341
-101,16
-103,916
-106,601
-109,207
-111,726
-114,149
-116,469
-118,678
-120,768
-122,734
-124,569
-126,267
-127,823
-129,232
-130,491
-131,597
-132,546
-133,338
-133,972
-134,448
-134,769
-134,936
-134,956
-134,832
-134,572
-134,183
-133,674
-133,054
-132,334
-131,524
-130,635
-129,679
-128,668
-127,614
-126,53
-125,428
-124,321
-123,222
-122,141
-121,091
-120,083
-119,128
-118,234
-117,41
-116,666
-116,008
-115,443
-114,976
-114,613
-114,358
-114,212
-114,179
-114,258
-114,447
-114,745
-115,148
-115,649
-116,243
-116,922
-117,678
-118,502
-119,385
-120,317
-121,288
-122,286
-123,302
-124,324
-125,341
-126,342
-127,316
-128,253
-129,141
-129,973
-130,739
-131,433
-132,048
-132,578
-133,019
-133,367
-133,62
-133,776
-133,834
-133,792
-133,65
-133,412
-133,081
-132,659
-132,151
-131,565
-130,91
-130,195
-129,433
-128,633
-127,806
-126,961
-126,108
-125,258
-124,42
-123,602
-122,811
-122,055
-121,344
-120,692
-120,114
-119,618
-119,208
-118,881
-118,634
-118,466
-118,372
-118,342
-118,364
-118,429
-118,532
-118,683
-118,89
-119,155
-119,474
-119,828
-120,199
-120,575
-120,951
-121,328
-121,705
-122,079
-122,453
-122,847
-123,289
-123,8
-124,382
-125,004
-125,628
-126,226
-126,773
-127,259
-127,671
-127,984
-128,165
-128,187
-128,027
-127,664
-127,075
-126,2
-124,968
-123,318
-121,207
-118,647
-115,673
-112,311
-108,596
-104,566
-100,269
-95,777
-91,174
-86,517
-81,858
-77,245
-72,726
-68,397
-64,365
-60,727
-57,576
-54,951
-52,864
-51,322
-50,31
-49,784
-49,686
-49,929
-50,413
-51,078
-51,871
-52,744
-53,65
-54,507
-55,227
-55,735
-55,953
-55,828
-55,346
-54,517
-53,384
-52,045
-50,597
-49,127
-47,748
-46,553
-45,626
-45,064
-44,962
-45,384
-46,427
-48,244
-50,874
-54,255
-58,178
-62,181
-65,795
-68,666
-70,334
-70,287
-68,416
-64,902
-60,35
-56,049
-53,045
-51,975
-53,73
-58,966
-67,393
-78,122
-89,182
-97,379
-100,175
-95,326
-79,806
-51,246
-8,531
47,109
111,11
178,364
245,739
313,562
383,001
450,793
508,123
541,084
538,027
495,292
418,074
319,185
209,74
101,309
4,764
-74,076
-126,178
-150,531
-155,869
-148,643
-139,001
-132,169
-124,293
-114,944
-104,303
-93,113
-85,472
-82,88
-84,255
-88,394
-93,462
-97,67
-99,97
-99,787
-96,825
-91,314
-83,887
-75,157
-65,7
-56,165
-47,117
-38,875
-31,621
-25,384
-20,065
-15,644
-12,154
-9,571
-7,843
-6,92
-6,732
-7,216
-8,329
-9,984
-12,071
-14,497
-17,173
-20,031
-23,032
-26,115
-29,2
-32,187
-34,946
-37,377
-39,416
-41,014
-42,15
-42,814
-43,001
-42,728
-42,035
-40,952
-39,506
-37,716
-35,584
-33,132
-30,397
-27,435
-24,319
-21,108
-17,838
-14,544
-11,245
-7,957
-4,694
-1,455
1,777
5,011
8,253
11,503
14,755
18,009
21,276
24,566
27,9
31,288
34,734
38,238
41,8
45,415
49,076
52,77
56,477
60,181
63,869
67,529
71,151
74,725
78,237
81,674
85,025
88,277
91,422
94,449
97,349
100,114
102,737
105,213
107,539
109,71
111,72
113,566
115,242
116,746
118,074
119,222
120,188
120,97
121,567
121,978
122,202
122,241
122,095
121,765
121,252
120,559
119,687
118,641
117,422
116,035
114,482
112,769
110,9
108,878
106,709
104,397
101,949
99,37
96,665
93,842
90,907
87,867
84,729
81,502
78,191
74,807
71,357
67,85
64,295
60,701
57,077
53,433
49,779
46,124
42,478
38,851
35,253
31,693
28,183
24,731
21,348
18,042
14,822
11,698
8,678
5,77
2,981
0,318
-2,211
-4,602
-6,849
-8,947
-10,893
-12,684
-14,317
-15,791
-17,104
-18,258
-19,252
-20,087
-20,766
-21,292
-21,666
-21,895
-21,982
-21,932
-21,752
-21,448
-21,026
-20,495
-19,862
-19,135
-18,323
-17,434
-16,476
-15,459
-14,392
-13,282
-12,139
-10,971
-9,786
-8,592
-7,396
-6,206
-5,028
-3,868
-2,732
-1,626
-0,555
0,478
1,466
2,407
3,297
4,131
4,908
5,624
6,277
6,864
7,384
7,836
8,217
8,527
8,766
8,933
9,029
9,053
9,005
8,888
8,7
8,444
8,12
7,729
7,274
6,754
6,172
5,528
4,825
4,063
3,245
2,372
1,446
0,469
-0,556
-1,627
-2,741
-3,893
-5,08
-6,298
-7,542
-8,806
-10,085
-11,373
-12,663
-13,95
-15,226
-16,486
-17,722
-18,928
-20,096
-21,22
-22,293
-23,309
-24,261
-25,144
-25,952
-26,679
-27,322
-27,875
-28,335
-28,698
-28,963
-29,128
-29,193
-29,157
-29,023
-28,792
-28,469
-28,055
-27,557
-26,977
-26,321
-25,597
-24,811
-23,972
-23,088
-22,172
-21,235
-20,288
-19,343
-18,411
-17,498
-16,612
-15,762
-14,954
-14,205
-13,527
-12,93
-12,427
-12,031
-11,75
-11,592
-11,551
-11,612
-11,761
-11,984
-12,272
-12,626
-13,04
-13,508
-14,021
-14,559
-15,103
-15,644
-16,16
-16,633
-17,046
-17,4
-17,731
-18,106
-18,589
-19,229
-20,047
-21,054
-22,29
-23,804
-25,643
-27,889
-30,575
-33,762
-37,609
-42,149
-47,29
-52,831
-58,288
-63,116
-66,949
-69,306
-69,645
-67,988
-64,683
-60,412
-56,621
-54,593
-55,191
-59,6
-68,695
-82
-98,2
-115,177
-129,573
-138,168
-137,979
-125,505
-97,761
-54,878
0,124
65,069
137,241
215,082
299,626
383,411
453,263
499,156
510,848
487,779
439,746
371,081
285,256
187,69
83,053
-14,579
-87,866
-129,022
-139,648
-131,56
-119,328
-110,711
-106,147
-101,281
-93,447
-83,498
-74,129
-68,842
-68,678
-72,364
-78,388
-84,889
-90,088
-93,259
-94,067
-92,345
-88,556
-83,269
-76,957
-70,306
-63,995
-58,351
-53,532
-49,571
-46,312
-43,661
-41,567
-39,892
-38,507
-37,317
-36,252
-35,308
-34,473
-33,69
-32,893
-32,012
-31,034
-30,015
-29,015
-28,076
-27,226
-26,468
-25,824
-25,339
-25,032
-24,913
-24,979
-25,202
-25,591
-26,173
-26,959
-27,944
-29,078
-30,26
-31,396
-32,417
-33,27
-33,916
-34,316
-34,416
-34,192
-33,632
-32,731
-31,492
-29,889
-27,885
-25,467
-22,645
-19,461
-15,99
-12,309
-8,474
-4,533
-0,526
3,512
7,543
11,545
15,504
19,409
23,239
26,954
30,51
33,877
37,043
40,014
42,812
45,471
48,01
50,446
52,794
55,058
57,24
59,334
61,329
63,213
64,982
66,643
68,203
69,667
71,034
72,293
73,429
74,422
75,254
75,909
76,374
76,642
76,709
76,575
76,247
75,731
75,033
74,156
73,103
71,876
70,48
68,922
67,211
65,358
63,374
61,271
59,061
56,757
54,37
51,908
49,382
46,8
44,169
41,499
38,798
36,076
33,341
30,603
27,869
25,148
22,446
19,77
17,125
14,517
11,95
9,426
6,95
4,525
2,152
-0,166
-2,428
-4,631
-6,776
-8,862
-10,887
-12,851
-14,756
-16,6
-18,385
-20,111
-21,779
-23,39
-24,945
-26,445
-27,891
-29,284
-30,626
-31,918
-33,16
-34,354
-35,501
-36,601
-37,656
-38,664
-39,627
-40,544
-41,414
-42,235
-43,008
-43,729
-44,399
-45,014
-45,573
-46,074
-46,515
-46,895
-47,212
-47,465
-47,651
-47,771
-47,823
-47,806
-47,72
-47,565
-47,342
-47,051
-46,693
-46,268
-45,779
-45,227
-44,614
-43,941
-43,212
-42,428
-41,594
-40,711
-39,784
-38,816
-37,812
-36,776
-35,714
-34,629
-33,528
-32,416
-31,299
-30,183
-29,075
-27,98
-26,906
-25,857
-24,84
-23,861
-22,926
-22,039
-21,206
-20,43
-19,714
-19,063
-18,479
-17,963
-17,518
-17,144
-16,844
-16,617
-16,464
-16,384
-16,378
-16,444
-16,583
-16,791
-17,069
-17,413
-17,821
-18,29
-18,817
-19,398
-20,029
-20,704
-21,418
-22,165
-22,938
-23,731
-24,536
-25,343
-26,146
-26,936
-27,708
-28,454
-29,167
-29,842
-30,475
-31,062
-31,599
-32,081
-32,503
-32,861
-33,152
-33,372
-33,518
-33,585
-33,568
-33,466
-33,278
-33,004
-32,641
-32,186
-31,632
-30,978
-30,23
-29,394
-28,475
-27,485
-26,433
-25,339
-24,228
-23,125
-22,05
-21,016
-20,032
-19,114
-18,281
-17,551
-16,941
-16,452
-16,073
-15,796
-15,616
-15,513
-15,459
-15,406
-15,294
-15,072
-14,705
-14,158
-13,4
-12,387
-11,069
-9,408
-7,381
-4,989
-2,246
0,837
4,248
7,946
11,861
15,889
19,912
23,827
27,53
30,91
33,831
36,15
37,74
38,478
38,258
36,99
34,594
30,98
26,109
19,949
12,447
3,702
-6,079
-16,604
-27,376
-37,892
-47,747
-56,367
-63,091
-67,662
-70,097
-70,814
-70,871
-71,097
-72,005
-74,478
-79,336
-86,534
-95,403
-104,252
-110,19
-110,817
-103,979
-86,708
-56,319
-11,423
46,924
114,952
188,198
263,283
340,299
420,04
498,433
568,03
616,407
629,891
602,977
536,501
438,435
322,721
203,792
96,757
13,038
-41,586
-68,812
-79,305
-83,011
-85,719
-88,371
-85,37
-73,799
-56,373
-37,279
-21,44
-11,713
-7,847
-8,975
-14,682
-23,842
-34,217
-43,896
-51,651
-56,783
-59,472
-59,932
-57,826
-53,545
-48,316
-43,104
-38,604
-35,163
-32,602
-30,863
-30,199
-30,548
-31,55
-32,904
-34,311
-35,625
-36,908
-38,131
-39,155
-39,883
-40,27
-40,301
-40,013
-39,417
-38,483
-37,204
-35,593
-33,686
-31,53
-29,163
-26,616
-23,915
-21,095
-18,195
-15,26
-12,335
-9,458
-6,651
-3,932
-1,31
1,209
3,621
5,927
8,137
10,261
12,307
14,28
16,182
18,018
19,794
21,517
23,195
24,835
26,441
28,017
29,567
31,095
32,602
34,091
35,56
37,01
38,444
39,862
41,268
42,663
44,05
45,429
46,804
48,173
49,538
50,898
52,251
53,596
54,932
56,254
57,561
58,85
60,115
61,354
62,561
63,732
64,86
65,941
66,968
67,937
68,84
69,673
70,429
71,103
71,689
72,183
72,579
72,871
73,055
73,126
73,081
72,915
72,624
72,206
71,657
70,977
70,162
69,214
68,13
66,911
65,558
64,072
62,455
60,709
58,838
56,845
54,734
52,511
50,181
47,75
45,225
42,613
39,922
37,16
34,335
31,457
28,535
25,578
22,598
19,603
16,606
13,616
10,645
7,704
4,803
1,954
-0,834
-3,551
-6,185
-8,729
-11,172
-13,507
-15,724
-17,816
-19,776
-21,597
-23,274
-24,801
-26,175
-27,392
-28,449
-29,345
-30,08
-30,654
-31,067
-31,323
-31,423
-31,371
-31,174
-30,835
-30,363
-29,764
-29,048
-28,222
-27,297
-26,282
-25,188
-24,025
-22,803
-21,534
-20,228
-18,895
-17,546
-16,192
-14,843
-13,51
-12,201
-10,926
-9,695
-8,514
-7,392
-6,336
-5,351
-4,443
-3,618
-2,878
-2,228
-1,67
-1,206
-0,835
-0,559
-0,376
-0,283
-0,278
-0,358
-0,517
-0,751
-1,055
-1,422
-1,849
-2,328
-2,854
-3,42
-4,022
-4,654
-5,31
-5,984
-6,671
-7,367
-8,065
-8,762
-9,454
-10,138
-10,81
-11,469
-12,113
-12,741
-13,353
-13,948
-14,525
-15,085
-15,629
-16,159
-16,677
-17,183
-17,679
-18,172
-18,664
-19,162
-19,673
-20,196
-20,73
-21,279
-21,842
-22,422
-23,019
-23,63
-24,25
-24,886
-25,541
-26,219
-26,927
-27,657
-28,404
-29,163
-29,925
-30,695
-31,476
-32,263
-33,049
-33,838
-34,628
-35,425
-36,24
-37,05
-37,837
-38,586
-39,276
-39,904
-40,469
-40,962
-41,376
-41,703
-41,927
-42,05
-42,073
-41,982
-41,77
-41,419
-40,91
-40,263
-39,501
-38,634
-37,683
-36,655
-35,552
-34,395
-33,201
-31,983
-30,756
-29,528
-28,3
-27,091
-25,918
-24,801
-23,771
-22,828
-21,966
-21,195
-20,517
-19,941
-19,474
-19,103
-18,802
-18,56
-18,361
-18,198
-18,074
-17,977
-17,895
-17,815
-17,707
-17,56
-17,367
-17,11
-16,775
-16,347
-15,822
-15,249
-14,703
-14,251
-13,949
-13,817
-13,865
-14,144
-14,699
-15,594
-16,909
-18,672
-20,967
-23,961
-27,691
-32,098
-36,956
-41,719
-45,829
-48,878
-50,316
-49,627
-46,801
-42,08
-36,306
-31,119
-27,917
-27,822
-32,099
-41,466
-55,45
-72,928
-91,52
-107,255
-116,466
-115,572
-100,309
-68,951
-23,1
35,549
103,408
179,236
267,047
365,32
467,245
558,867
617,926
630,764
593,695
512,268
403,566
282,244
161,695
56,879
-24,328
-76,836
-101,66
-110,261
-112,373
-113,546
-115,684
-114,219
-106,609
-95,367
-83,753
-75,763
-73,544
-76,221
-82,207
-89,944
-97,872
-104,431
-108,682
-110,225
-109,016
-105,62
-100,681
-94,694
-88,318
-82,25
-76,872
-72,375
-68,801
-65,992
-63,855
-62,364
-61,404
-60,853
-60,612
-60,587
-60,73
-61,003
-61,347
-61,688
-61,965
-62,155
-62,267
-62,311
-62,289
-62,184
-61,969
-61,611
-61,103
-60,442
-59,633
-58,692
-57,631
-56,474
-55,247
-53,972
-52,659
-51,293
-49,85
-48,312
-46,671
-44,936
-43,127
-41,276
-39,403
-37,529
-35,669
-33,829
-32,013
-30,219
-28,441
-26,669
-24,904
-23,157
-21,438
-19,757
-18,114
-16,503
-14,912
-13,321
-11,715
-10,078
-8,397
-6,665
-4,877
-3,034
-1,139
0,799
2,778
4,793
6,841
8,922
11,028
13,152
15,286
17,417
19,534
21,623
23,674
25,673
27,611
29,477
31,263
32,96
34,563
36,061
37,448
38,713
39,85
40,848
41,701
42,402
42,943
43,32
43,527
43,561
43,42
43,101
42,603
41,926
41,07
40,036
38,827
37,446
35,897
34,185
32,317
30,298
28,137
25,842
23,42
20,883
18,238
15,496
12,667
9,762
6,792
3,767
0,699
-2,402
-5,524
-8,656
-11,787
-14,906
-18,004
-21,069
-24,093
-27,066
-29,979
-32,823
-35,591
-38,275
-40,868
-43,364
-45,756
-48,04
-50,21
-52,263
-54,195
-56,003
-57,687
-59,244
-60,674
-61,978
-63,155
-64,209
-65,14
-65,952
-66,649
-67,234
-67,712
-68,088
-68,366
-68,553
-68,654
-68,675
-68,622
-68,501
-68,318
-68,079
-67,791
-67,46
-67,092
-66,693
-66,269
-65,827
-65,371
-64,908
-64,442
-63,979
-63,522
-63,076
-62,644
-62,23
-61,834
-61,46
-61,108
-60,779
-60,472
-60,186
-59,92
-59,672
-59,441
-59,224
-59,018
-58,82
-58,627
-58,437
-58,246
-58,051
-57,85
-57,638
-57,414
-57,175
-56,918
-56,641
-56,341
-56,016
-55,666
-55,287
-54,881
-54,444
-53,977
-53,481
-52,956
-52,404
-51,826
-51,227
-50,61
-49,978
-49,338
-48,693
-48,05
-47,414
-46,791
-46,187
-45,608
-45,058
-44,542
-44,065
-43,632
-43,245
-42,909
-42,627
-42,401
-42,235
-42,13
-42,089
-42,114
-42,203
-42,355
-42,568
-42,84
-43,167
-43,545
-43,969
-44,431
-44,925
-45,446
-45,984
-46,53
-47,07
-47,587
-48,067
-48,502
-48,884
-49,208
-49,473
-49,678
-49,829
-49,942
-50,026
-50,089
-50,134
-50,152
-50,144
-50,112
-50,061
-50,004
-49,944
-49,867
-49,763
-49,616
-49,401
-49,082
-48,607
-47,901
-46,91
-45,597
-43,943
-41,949
-39,614
-36,934
-33,911
-30,547
-26,854
-22,858
-18,583
-14,059
-9,339
-4,5
0,351
5,075
9,56
13,734
17,538
20,939
23,906
26,408
28,421
29,931
30,909
31,304
31,064
30,133
28,498
26,201
23,298
19,862
15,947
11,569
6,732
1,479
-4,207
-10,403
-17,078
-24,119
-31,268
-38
-43,84
-48,451
-51,381
-52,169
-50,734
-47,23
-42,271
-37,103
-32,742
-29,899
-29,47
-32,092
-37,576
-45,172
-53,14
-58,669
-59,125
-52,06
-34,629
-4,222
39,047
92,738
153,888
217,57
283,285
355,459
431,974
508,823
575,829
611,535
604,792
550,423
448,384
318,03
178,166
48,619
-46,606
-101,418
-118,448
-108,204
-91,738
-79,509
-74,012
-73,316
-69,185
-59,767
-47,913
-36,288
-28,818
-26,48
-27,531
-30,62
-34,154
-36,443
-36,859
-35,212
-31,481
-26,216
-20,054
-13,431
-6,897
-1,077
3,723
7,392
9,939
11,585
12,501
12,768
12,524
11,92
11,079
10,13
9,176
8,282
7,529
6,987
6,704
6,71
6,992
7,505
8,193
9,008
9,932
10,975
12,143
13,431
14,821
16,281
17,781
19,296
20,796
22,253
23,645
24,962
26,22
27,457
28,721
30,045
31,436
32,873
34,341
35,835
37,353
38,898
40,463
42,044
43,645
45,283
46,973
48,723
50,527
52,37
54,235
56,119
58,025
59,967
61,956
63,994
66,087
68,24
70,461
72,756
75,118
77,537
80,005
82,518
85,078
87,686
90,33
92,994
95,663
98,322
100,957
103,548
106,074
108,514
110,858
113,107
115,265
117,332
119,296
121,135
122,831
124,374
125,766
127,015
128,121
129,08
129,899
130,595
131,196
131,71
132,122
132,389
132,474
132,354
132,022
131,482
130,733
129,764
128,558
127,104
125,402
123,448
121,228
118,707
115,848
112,639
109,107
105,31
101,303
97,123
92,795
88,34
83,789
79,176
74,532
69,878
65,225
60,595
56,022
51,558
47,257
43,15
39,238
35,501
31,922
28,495
25,223
22,104
19,13
16,291
13,589
11,035
8,642
6,414
4,345
2,417
0,612
-1,075
-2,643
-4,078
-5,376
-6,533
-7,551
-8,427
-9,157
-9,74
-10,183
-10,498
-10,699
-10,796
-10,792
-10,692
-10,5
-10,221
-9,865
-9,439
-8,951
-8,406
-7,814
-7,181
-6,516
-5,827
-5,117
-4,39
-3,647
-2,894
-2,134
-1,37
-0,605
0,157
0,913
1,661
2,396
3,116
3,819
4,503
5,166
5,807
6,422
7,012
7,572
8,103
8,601
9,065
9,492
9,88
10,228
10,532
10,792
11,003
11,165
11,274
11,329
11,326
11,263
11,138
10,948
10,693
10,37
9,979
9,519
8,99
8,391
7,724
6,99
6,189
5,324
4,396
3,41
2,368
1,275
0,135
-1,046
-2,261
-3,506
-4,773
-6,055
-7,344
-8,633
-9,914
-11,178
-12,419
-13,627
-14,793
-15,91
-16,969
-17,962
-18,882
-19,721
-20,472
-21,131
-21,693
-22,154
-22,513
-22,767
-22,917
-22,962
-22,904
-22,745
-22,487
-22,13
-21,677
-21,132
-20,503
-19,801
-19,035
-18,215
-17,356
-16,47
-15,574
-14,683
-13,8
-12,934
-12,092
-11,284
-10,529
-9,843
-9,238
-8,728
-8,319
-8,01
-7,801
-7,679
-7,613
-7,579
-7,546
-7,485
-7,397
-7,276
-7,111
-6,892
-6,6
-6,226
-5,774
-5,242
-4,635
-3,972
-3,286
-2,655
-2,195
-2,014
-2,223
-2,913
-4,117
-5,889
-8,294
-11,386
-15,226
-19,843
-25,215
-31,37
-38,376
-46,17
-54,559
-63,137
-71,237
-78,267
-83,74
-87,131
-88,059
-86,451
-82,543
-77,158
-71,661
-67,316
-65,202
-66,131
-70,16
-76,612
-84,147
-90,454
-92,327
-86,321
-69,086
-37,733
7,393
62,994
126,058
192,33
261,528
337,835
418,183
496,301
559,485
585,625
563,693
491,164
374,2
236,102
99,194
-16,315
-94,317
-134,503
-144,722
-139,106
-131,635
-127,728
-127,072
-124,395
-116,361
-104,769
-92,829
-84,576
-81,911
-83,78
-88,55
-94,654
-100,55
-105,038
-107,47
-107,492
-105,215
-101,207
-96,034
-90,181
-84,245
-78,822
-74,26
-70,769
-68,365
-66,878
-66,182
-66,154
-66,647
-67,519
-68,652
-69,954
-71,358
-72,816
-74,276
-75,695
-77,026
-78,223
-79,239
-80,01
-80,497
-80,691
-80,592
-80,224
-79,604
-78,74
-77,656
-76,382
-74,944
-73,37
-71,67
-69,831
-67,855
-65,757
-63,563
-61,317
-59,047
-56,761
-54,467
-52,169
-49,87
-47,579
-45,291
-42,99
-40,668
-38,321
-35,957
-33,593
-31,236
-28,884
-26,526
-24,145
-21,73
-19,275
-16,774
-14,218
-11,602
-8,923
-6,185
-3,401
-0,577
2,282
5,172
8,094
11,043
14,012
16,992
19,974
22,948
25,904
28,83
31,712
34,539
37,299
39,983
42,583
45,089
47,491
49,78
51,944
53,975
55,862
57,595
59,165
60,56
61,774
62,799
63,629
64,258
64,683
64,9
64,908
64,705
64,292
63,669
62,84
61,807
60,574
59,148
57,533
55,738
53,77
51,638
49,351
46,919
44,353
41,663
38,862
35,96
32,97
29,903
26,773
23,59
20,37
17,123
13,862
10,601
7,35
4,122
0,927
-2,225
-5,325
-8,362
-11,331
-14,223
-17,032
-19,752
-22,379
-24,907
-27,335
-29,657
-31,873
-33,981
-35,98
-37,869
-39,649
-41,319
-42,882
-44,338
-45,689
-46,937
-48,084
-49,132
-50,086
-50,946
-51,718
-52,404
-53,007
-53,531
-53,98
-54,357
-54,665
-54,906
-55,083
-55,199
-55,257
-55,257
-55,203
-55,097
-54,939
-54,733
-54,48
-54,182
-53,839
-53,455
-53,03
-52,566
-52,065
-51,529
-50,96
-50,36
-49,732
-49,078
-48,402
-47,706
-46,993
-46,265
-45,526
-44,779
-44,026
-43,271
-42,517
-41,768
-41,027
-40,299
-39,587
-38,896
-38,229
-37,589
-36,98
-36,404
-35,864
-35,363
-34,902
-34,482
-34,105
-33,772
-33,484
-33,24
-33,041
-32,885
-32,772
-32,699
-32,664
-32,664
-32,696
-32,758
-32,846
-32,957
-33,088
-33,235
-33,396
-33,569
-33,748
-33,932
-34,117
-34,297
-34,469
-34,628
-34,771
-34,891
-34,986
-35,053
-35,09
-35,097
-35,076
-35,026
-34,952
-34,855
-34,737
-34,599
-34,444
-34,273
-34,084
-33,881
-33,665
-33,444
-33,226
-33,017
-32,823
-32,644
-32,478
-32,317
-32,149
-31,962
-31,739
-31,472
-31,156
-30,793
-30,395
-29,975
-29,549
-29,124
-28,695
-28,259
-27,808
-27,344
-26,873
-26,416
-26,003
-25,675
-25,481
-25,462
-25,654
-26,072
-26,705
-27,526
-28,492
-29,569
-30,739
-31,987
-33,31
-34,695
-36,12
-37,548
-38,924
-40,175
-41,202
-41,9
-42,162
-41,908
-41,097
-39,725
-37,829
-35,439
-32,587
-29,299
-25,592
-21,493
-17,03
-12,235
-7,157
-1,878
3,487
8,79
13,862
18,554
22,742
26,352
29,36
31,744
33,496
34,618
35,099
34,934
34,104
32,547
30,214
27,083
23,164
18,536
13,309
7,566
1,388
-5,181
-12,141
-19,458
-27,135
-35,267
-43,851
-52,773
-61,767
-70,292
-77,765
-83,754
-87,791
-89,362
-88,265
-84,629
-79,03
-72,732
-67,061
-62,996
-61,492
-63,383
-68,812
-77,102
-86,596
-94,393
-97,345
-92,504
-76,808
-47,442
-2,29
57,829
129,212
207,726
288,087
369,091
453,675
538,186
617,049
679,507
705,701
687,134
621,51
511,093
375,094
230,269
93,724
-12,725
-82,648
-116,157
-120,514
-114,48
-108,232
-105,119
-104,745
-99,936
-89,088
-75,661
-62,679
-54,095
-51,109
-52,062
-55,493
-59,97
-63,91
-66,142
-66,071
-63,526
-58,871
-52,856
-46,137
-39,226
-32,732
-27,214
-22,95
-20,043
-18,404
-17,785
-17,999
-18,899
-20,307
-22,057
-24,012
-26,035
-28,017
-29,869
-31,481
-32,767
-33,677
-34,175
-34,257
-33,937
-33,236
-32,189
-30,845
-29,251
-27,449
-25,481
-23,387
-21,215
-19,019
-16,849
-14,757
-12,778
-10,932
-9,235
-7,688
-6,285
-5,019
-3,87
-2,818
-1,845
-0,936
-0,078
0,741
1,535
2,321
3,115
3,93
4,781
5,679
6,633
7,653
8,744
9,912
11,161
12,49
13,904
15,405
16,995
18,677
20,45
22,316
24,271
26,315
28,444
30,651
32,932
35,277
37,678
40,125
42,608
45,115
47,634
50,153
52,657
55,134
57,569
59,948
62,258
64,483
66,611
68,628
70,521
72,277
73,886
75,335
76,615
77,717
78,632
79,354
79,878
80,197
80,309
80,212
79,906
79,389
78,665
77,735
76,606
75,282
73,769
72,077
70,213
68,188
66,013
63,698
61,257
58,702
56,045
53,301
50,482
47,603
44,677
41,718
38,74
35,754
32,775
29,814
26,883
23,994
21,157
18,381
15,676
13,048
10,506
8,055
5,7
3,445
1,294
-0,751
-2,69
-4,521
-6,244
-7,862
-9,377
-10,791
-12,107
-13,331
-14,467
-15,519
-16,494
-17,397
-18,233
-19,01
-19,732
-20,406
-21,038
-21,634
-22,201
-22,743
-23,267
-23,777
-24,279
-24,776
-25,272
-25,772
-26,276
-26,788
-27,309
-27,841
-28,384
-28,938
-29,502
-30,076
-30,659
-31,247
-31,838
-32,429
-33,018
-33,6
-34,172
-34,729
-35,269
-35,787
-36,28
-36,744
-37,176
-37,572
-37,93
-38,246
-38,519
-38,745
-38,923
-39,05
-39,127
-39,152
-39,124
-39,043
-38,911
-38,727
-38,492
-38,208
-37,877
-37,501
-37,081
-36,622
-36,126
-35,598
-35,042
-34,461
-33,861
-33,246
-32,621
-31,991
-31,361
-30,735
-30,117
-29,512
-28,923
-28,353
-27,807
-27,287
-26,796
-26,335
-25,907
-25,512
-25,153
-24,829
-24,542
-24,29
-24,075
-23,897
-23,754
-23,648
-23,577
-23,541
-23,538
-23,569
-23,63
-23,721
-23,839
-23,982
-24,147
-24,332
-24,534
-24,752
-24,982
-25,222
-25,469
-25,723
-25,98
-26,239
-26,499
-26,758
-27,015
-27,269
-27,521
-27,771
-28,017
-28,261
-28,503
-28,742
-28,979
-29,212
-29,44
-29,659
-29,87
-30,07
-30,258
-30,43
-30,587
-30,726
-30,848
-30,953
-31,04
-31,108
-31,155
-31,181
-31,184
-31,162
-31,112
-31,032
-30,92
-30,773
-30,594
-30,381
-30,131
-29,841
-29,504
-29,117
-28,681
-28,196
-27,663
-27,085
-26,471
-25,835
-25,201
-24,589
-24,014
-23,493
-23,034
-22,652
-22,361
-22,171
-22,085
-22,105
-22,224
-22,433
-22,724
-23,068
-23,426
-23,747
-23,96
-23,998
-23,801
-23,304
-22,448
-21,18
-19,445
-17,215
-14,481
-11,236
-7,489
-3,263
1,408
6,447
11,749
17,192
22,607
27,819
32,651
36,91
40,433
43,061
44,62
44,978
44,017
41,617
37,729
32,274
25,127
16,36
6,167
-5,107
-16,818
-28,332
-39,141
-48,526
-55,777
-60,686
-63,24
-64,011
-64,365
-65,39
-67,983
-73,295
-81,959
-93,556
-107,202
-120,804
-130,716
-133,59
-126,076
-104,105
-66,022
-13,645
51,153
125,125
206,593
299,799
405,015
514,988
616,991
689,802
714,624
686,677
609,037
492,727
357,361
218,066
91,157
-4,505
-63,2
-85,535
-80,309
-66,726
-55,21
-49,437
-48,978
-47,013
-41,962
-36,335
-32,284
-33,082
-39,303
-48,936
-60,175
-70,972
-79,495
-85,037
-87,401
-86,675
-83,398
-78,229
-71,777
-64,776
-58,007
-51,944
-46,8
-42,642
-39,356
-36,837
-35,041
-33,871
-33,201
-32,939
-33,003
-33,33
-33,888
-34,616
-35,417
-36,195
-36,848
-37,289
-37,473
-37,379
-36,995
-36,326
-35,381
-34,173
-32,728
-31,076
-29,239
-27,236
-25,092
-22,836
-20,509
-18,165
-15,851
-13,615
-11,493
-9,496
-7,636
-5,919
-4,343
-2,906
-1,614
-0,472
0,492
1,243
1,765
2,053
2,116
1,989
1,709
1,321
0,885
0,447
0,044
-0,284
-0,516
-0,632
-0,592
-0,355
0,136
0,955
2,146
3,735
5,739
8,139
10,906
13,995
17,327
20,837
24,472
28,18
31,929
35,69
39,414
43,055
46,557
49,85
52,88
55,607
57,992
60,024
61,703
63,044
64,088
64,873
65,419
65,744
65,852
65,744
65,43
64,916
64,209
63,328
62,286
61,097
59,779
58,337
56,774
55,083
53,251
51,265
49,121
46,823
44,375
41,792
39,084
36,268
33,363
30,385
27,35
24,27
21,157
18,024
14,884
11,753
8,646
5,579
2,566
-0,381
-3,251
-6,035
-8,726
-11,317
-13,807
-16,193
-18,471
-20,639
-22,695
-24,638
-26,465
-28,177
-29,774
-31,256
-32,626
-33,886
-35,041
-36,094
-37,051
-37,918
-38,7
-39,402
-40,032
-40,594
-41,095
-41,539
-41,932
-42,279
-42,585
-42,854
-43,091
-43,3
-43,484
-43,647
-43,792
-43,922
-44,037
-44,141
-44,235
-44,319
-44,394
-44,461
-44,522
-44,575
-44,623
-44,663
-44,697
-44,724
-44,742
-44,749
-44,745
-44,727
-44,692
-44,64
-44,569
-44,475
-44,359
-44,22
-44,055
-43,865
-43,648
-43,405
-43,135
-42,837
-42,513
-42,162
-41,785
-41,382
-40,956
-40,507
-40,037
-39,548
-39,041
-38,518
-37,981
-37,432
-36,872
-36,304
-35,73
-35,152
-34,573
-33,997
-33,426
-32,864
-32,314
-31,779
-31,263
-30,769
-30,3
-29,857
-29,443
-29,061
-28,713
-28,399
-28,123
-27,885
-27,687
-27,529
-27,413
-27,338
-27,305
-27,312
-27,359
-27,445
-27,571
-27,735
-27,937
-28,176
-28,452
-28,764
-29,111
-29,491
-29,902
-30,341
-30,806
-31,293
-31,799
-32,321
-32,855
-33,397
-33,945
-34,494
-35,043
-35,586
-36,12
-36,642
-37,147
-37,632
-38,093
-38,526
-38,93
-39,301
-39,637
-39,937
-40,197
-40,415
-40,589
-40,716
-40,791
-40,811
-40,772
-40,668
-40,498
-40,257
-39,945
-39,558
-39,096
-38,558
-37,947
-37,263
-36,506
-35,677
-34,775
-33,799
-32,75
-31,628
-30,434
-29,169
-27,834
-26,433
-24,973
-23,461
-21,9
-20,294
-18,642
-16,948
-15,218
-13,461
-11,686
-9,906
-8,135
-6,394
-4,715
-3,126
-1,651
-0,301
0,922
2,014
2,974
3,803
4,5
5,077
5,547
5,918
6,196
6,39
6,518
6,618
6,749
6,969
7,328
7,858
8,574
9,488
10,601
11,898
13,356
14,93
16,583
18,297
20,054
21,839
23,62
25,337
26,902
28,218
29,17
29,657
29,592
28,904
27,577
25,607
22,998
19,778
15,955
11,505
6,442
0,744
-5,682
-12,768
-20,316
-28,017
-35,282
-41,53
-46,37
-49,262
-49,621
-47,407
-42,906
-36,8
-30,561
-25,415
-22,125
-21,895
-25,72
-33,357
-43,85
-55,323
-64,459
-68,245
-64,151
-48,612
-18,162
27,323
85,387
153,09
225,245
301,068
384,739
473,053
558,849
629,822
666,131
657,734
605,189
513,885
396,577
266,818
135,59
17,367
-71,397
-122,49
-135,761
-120,968
-96,997
-75,971
-62,182
-54,414
-46,137
-35,607
-25,03
-16,686
-13,51
-15,607
-20,901
-27,736
-34,237
-38,909
-41,31
-41,326
-39,196
-35,586
-31,15
-26,422
-21,972
-18,307
-15,656
-14,083
-13,515
-13,733
-14,56
-15,856
-17,469
-19,257
-21,114
-22,94
-24,648
-26,171
-27,428
-28,353
-28,91
-29,074
-28,847
-28,239
-27,274
-25,985
-24,412
-22,596
-20,573
-18,376
-16,043
-13,615
-11,141
-8,667
-6,24
-3,893
-1,648
0,476
2,474
4,344
6,09
7,724
9,26
10,706
12,072
13,366
14,594
15,767
16,896
17,993
19,069
20,134
21,197
22,268
23,354
24,461
25,594
26,756
27,949
29,178
30,445
31,755
33,11
34,513
35,966
37,47
39,024
40,629
42,283
43,981
45,72
47,494
49,298
51,124
52,964
54,81
56,654
58,484
60,292
62,065
63,792
65,462
67,062
68,581
70,007
71,327
72,531
73,607
74,545
75,336
75,97
76,439
76,736
76,855
76,79
76,536
76,091
75,452
74,618
73,59
72,368
70,956
69,357
67,576
65,62
63,494
61,207
58,768
56,186
53,471
50,634
47,686
44,641
41,51
38,307
35,045
31,737
28,397
25,039
21,675
18,319
14,984
11,681
8,424
5,224
2,091
-0,964
-3,931
-6,803
-9,572
-12,231
-14,773
-17,196
-19,493
-21,663
-23,704
-25,613
-27,391
-29,037
-30,554
-31,941
-33,203
-34,341
-35,36
-36,263
-37,057
-37,745
-38,334
-38,83
-39,239
-39,568
-39,823
-40,012
-40,141
-40,218
-40,251
-40,246
-40,211
-40,151
-40,074
-39,985
-39,89
-39,792
-39,697
-39,608
-39,527
-39,458
-39,402
-39,362
-39,337
-39,33
-39,339
-39,365
-39,407
-39,465
-39,537
-39,622
-39,718
-39,823
-39,935
-40,052
-40,172
-40,291
-40,406
-40,515
-40,614
-40,7
-40,769
-40,818
-40,844
-40,843
-40,812
-40,751
-40,655
-40,525
-40,358
-40,155
-39,916
-39,639
-39,328
-38,982
-38,603
-38,193
-37,755
-37,29
-36,801
-36,29
-35,759
-35,212
-34,651
-34,078
-33,495
-32,905
-32,311
-31,716
-31,122
-30,532
-29,951
-29,38
-28,823
-28,284
-27,766
-27,272
-26,805
-26,367
-25,96
-25,587
-25,249
-24,947
-24,68
-24,45
-24,256
-24,097
-23,973
-23,88
-23,819
-23,788
-23,785
-23,809
-23,86
-23,936
-24,037
-24,162
-24,31
-24,482
-24,677
-24,894
-25,132
-25,389
-25,663
-25,951
-26,251
-26,561
-26,877
-27,195
-27,513
-27,829
-28,142
-28,448
-28,747
-29,035
-29,309
-29,568
-29,809
-30,028
-30,224
-30,394
-30,535
-30,644
-30,721
-30,763
-30,766
-30,725
-30,629
-30,471
-30,247
-29,955
-29,596
-29,175
-28,701
-28,185
-27,65
-27,115
-26,599
-26,117
-25,675
-25,282
-24,947
-24,683
-24,509
-24,436
-24,465
-24,587
-24,785
-25,032
-25,292
-25,514
-25,626
-25,554
-25,232
-24,61
-23,658
-22,349
-20,66
-18,556
-16,005
-12,991
-9,515
-5,602
-1,29
3,365
8,292
13,389
18,521
23,541
28,303
32,692
36,616
39,988
42,712
44,658
45,701
45,737
44,69
42,53
39,231
34,767
29,136
22,379
14,563
5,818
-3,75
-14,143
-25,247
-36,833
-48,584
-59,929
-70,318
-79,374
-86,552
-91,208
-93,191
-92,634
-90,006
-86,515
-83,137
-80,498
-79,774
-82,012
-87,127
-94,377
-102,208
-107,878
-108,905
-102,992
-86,701
-56,511
-12,474
42,421
105,424
172,304
244,46
329,018
423,418
520,049
603,907
648,904
642,679
583,356
475,83
342,439
201,642
69,839
-33,298
-102,916
-138,689
-146,446
-143,381
-138,424
-135,133
-133,821
-127,42
-114,41
-98,371
-82,404
-70,904
-65,594
-65,019
-67,753
-72,36
-77,116
-80,603
-82,039
-81,052
-77,818
-72,995
-67,183
-60,848
-54,624
-49,16
-44,793
-41,683
-39,778
-38,831
-38,666
-39,15
-40,112
-41,385
-42,836
-44,342
-45,805
-47,16
-48,314
-49,189
-49,737
-49,92
-49,728
-49,169
-48,256
-47,022
-45,505
-43,746
-41,781
-39,645
-37,371
-35,001
-32,58
-30,154
-27,77
-25,459
-23,243
-21,136
-19,143
-17,265
-15,493
-13,815
-12,212
-10,672
-9,184
-7,739
-6,329
-4,944
-3,572
-2,202
-0,825
0,569
1,988
3,438
4,923
6,448
8,014
9,623
11,272
12,963
14,698
16,477
18,301
20,171
22,086
24,046
26,049
28,092
30,171
32,282
34,418
36,572
38,738
40,907
43,071
45,221
47,346
49,438
51,486
53,48
55,408
57,261
59,027
60,696
62,258
63,704
65,023
66,207
67,248
68,138
68,869
69,434
69,828
70,046
70,081
69,931
69,593
69,063
68,342
67,428
66,323
65,029
63,548
61,886
60,047
58,038
55,866
53,539
51,066
48,456
45,72
42,868
39,911
36,862
33,731
30,531
27,274
23,972
20,636
17,28
13,914
10,55
7,2
3,874
0,585
-2,659
-5,846
-8,968
-12,014
-14,976
-17,845
-20,615
-23,278
-25,829
-28,262
-30,573
-32,758
-34,816
-36,744
-38,541
-40,207
-41,744
-43,151
-44,432
-45,589
-46,625
-47,542
-48,345
-49,038
-49,625
-50,111
-50,5
-50,796
-51,005
-51,132
-51,181
-51,157
-51,066
-50,912
-50,7
-50,436
-50,125
-49,771
-49,379
-48,954
-48,5
-48,022
-47,523
-47,005
-46,473
-45,928
-45,373
-44,808
-44,236
-43,657
-43,072
-42,482
-41,886
-41,286
-40,681
-40,073
-39,46
-38,844
-38,225
-37,603
-36,98
-36,356
-35,732
-35,109
-34,489
-33,872
-33,259
-32,652
-32,052
-31,458
-30,873
-30,296
-29,729
-29,172
-28,626
-28,093
-27,574
-27,071
-26,585
-26,119
-25,675
-25,256
-24,863
-24,5
-24,167
-23,868
-23,603
-23,374
-23,182
-23,027
-22,912
-22,835
-22,795
-22,794
-22,829
-22,9
-23,005
-23,142
-23,308
-23,503
-23,723
-23,968
-24,234
-24,521
-24,827
-25,149
-25,486
-25,834
-26,191
-26,554
-26,917
-27,275
-27,624
-27,959
-28,275
-28,565
-28,827
-29,056
-29,248
-29,403
-29,517
-29,588
-29,614
-29,593
-29,523
-29,402
-29,229
-29
-28,715
-28,372
-27,973
-27,518
-27,01
-26,451
-25,839
-25,173
-24,452
-23,679
-22,856
-21,989
-21,087
-20,161
-19,227
-18,311
-17,435
-16,622
-15,889
-15,249
-14,71
-14,273
-13,939
-13,707
-13,574
-13,526
-13,55
-13,621
-13,715
-13,804
-13,846
-13,783
-13,552
-13,084
-12,32
-11,216
-9,74
-7,885
-5,649
-3,038
-0,075
3,205
6,752
10,501
14,39
18,363
22,332
26,171
29,735
32,851
35,367
37,173
38,167
38,268
37,405
35,504
32,548
28,564
23,554
17,484
10,374
2,3
-6,457
-15,343
-23,823
-31,394
-37,455
-41,42
-42,933
-41,924
-38,949
-35,35
-32,355
-31,013
-32,785
-38,691
-48,847
-63,11
-78,709
-91,259
-98,566
-97,424
-86,436
-66,539
-34,667
10,495
70,515
149,249
245,844
358,06
477,177
586,668
668,121
701,825
679,28
602,222
479,362
331,384
176,262
32,908
-76,855
-146,153
-174,301
-169,888
-154,282
-138,745
-127,539
-120,558
-109,241
-91,709
-71,887
-52,992
-39,661
-33,429
-32,35
-34,728
-38,906
-43,016
-45,758
-46,467
-44,873
-41,303
-36,47
-30,961
-25,251
-19,928
-15,528
-12,312
-10,357
-9,531
-9,56
-10,238
-11,407
-12,896
-14,528
-16,162
-17,671
-18,954
-19,968
-20,676
-21,042
-21,054
-20,707
-20,005
-18,977
-17,663
-16,098
-14,32
-12,365
-10,262
-8,052
-5,783
-3,5
-1,255
0,917
2,995
4,963
6,813
8,543
10,155
11,662
13,082
14,432
15,723
16,965
18,167
19,339
20,498
21,656
22,826
24,022
25,251
26,523
27,848
29,23
30,675
32,185
33,76
35,402
37,113
38,895
40,75
42,679
44,68
46,753
48,896
51,106
53,379
55,708
58,086
60,506
62,958
65,434
67,924
70,416
72,9
75,363
77,794
80,18
82,508
84,763
86,934
89,006
90,967
92,802
94,5
96,048
97,434
98,647
99,678
100,516
101,153
101,581
101,793
101,783
101,547
101,081
100,383
99,451
98,287
96,891
95,268
93,42
91,354
89,076
86,593
83,914
81,047
78,004
74,794
71,429
67,922
64,286
60,533
56,677
52,733
48,713
44,632
40,505
36,344
32,165
27,982
23,807
19,655
15,539
11,471
7,464
3,529
-0,323
-4,082
-7,738
-11,283
-14,709
-18,01
-21,179
-24,211
-27,101
-29,846
-32,443
-34,891
-37,187
-39,331
-41,323
-43,164
-44,855
-46,398
-47,795
-49,048
-50,16
-51,135
-51,977
-52,689
-53,277
-53,744
-54,098
-54,342
-54,483
-54,527
-54,48
-54,347
-54,136
-53,851
-53,498
-53,084
-52,613
-52,092
-51,525
-50,918
-50,275
-49,602
-48,902
-48,18
-47,439
-46,684
-45,919
-45,146
-44,37
-43,594
-42,821
-42,055
-41,3
-40,558
-39,833
-39,126
-38,442
-37,782
-37,149
-36,544
-35,969
-35,426
-34,916
-34,441
-34,002
-33,601
-33,237
-32,913
-32,629
-32,385
-32,182
-32,022
-31,903
-31,827
-31,793
-31,803
-31,854
-31,948
-32,084
-32,26
-32,475
-32,729
-33,019
-33,343
-33,699
-34,084
-34,497
-34,934
-35,392
-35,869
-36,36
-36,864
-37,376
-37,893
-38,412
-38,928
-39,439
-39,939
-40,427
-40,897
-41,345
-41,768
-42,161
-42,519
-42,84
-43,118
-43,35
-43,533
-43,662
-43,736
-43,751
-43,705
-43,597
-43,424
-43,187
-42,883
-42,514
-42,079
-41,578
-41,014
-40,389
-39,706
-38,971
-38,186
-37,358
-36,492
-35,593
-34,668
-33,72
-32,754
-31,774
-30,785
-29,792
-28,805
-27,829
-26,871
-25,936
-25,032
-24,162
-23,333
-22,544
-21,793
-21,083
-20,418
-19,808
-19,267
-18,806
-18,431
-18,151
-17,967
-17,878
-17,881
-17,96
-18,098
-18,277
-18,485
-18,712
-18,954
-19,196
-19,414
-19,576
-19,644
-19,588
-19,382
-19,004
-18,456
-17,747
-16,909
-15,99
-15,03
-14,076
-13,191
-12,44
-11,901
-11,66
-11,788
-12,391
-13,656
-15,685
-18,462
-21,835
-25,412
-28,792
-31,702
-33,798
-34,63
-33,985
-31,971
-29,151
-26,799
-26,17
-28,034
-33,061
-41,841
-54,431
-70,189
-87,442
-103,048
-113,644
-116,644
-109,506
-89,674
-55,296
-5,518
57,585
128,548
201,959
273,937
344,144
413,865
480,103
536,082
570,123
569,897
530,447
451,909
341,743
214,816
87,855
-19,696
-92,412
-125,776
-126,158
-109,725
-91,843
-80,691
-76,556
-72,97
-66,146
-56,54
-46,551
-40,412
-39,66
-42,888
-48,48
-54,439
-58,94
-61,375
-61,554
-59,389
-55,411
-50,29
-44,539
-38,815
-33,791
-29,78
-26,93
-25,291
-24,674
-24,917
-25,918
-27,496
-29,484
-31,762
-34,193
-36,672
-39,112
-41,392
-43,414
-45,11
-46,425
-47,34
-47,851
-47,958
-47,683
-47,057
-46,109
-44,875
-43,385
-41,667
-39,764
-37,723
-35,592
-33,427
-31,266
-29,135
-27,056
-25,039
-23,087
-21,2
-19,37
-17,582
-15,827
-14,101
-12,398
-10,716
-9,05
-7,391
-5,732
-4,067
-2,389
-0,694
1,021
2,759
4,521
6,307
8,113
9,938
11,78
13,639
15,515
17,408
19,319
21,245
23,188
25,147
27,119
29,103
31,095
33,091
35,087
37,079
39,061
41,029
42,977
44,899
46,787
48,636
50,439
52,187
53,873
55,49
57,03
58,484
59,845
61,106
62,258
63,296
64,212
65,001
65,655
66,17
66,54
66,761
66,829
66,741
66,493
66,083
65,512
64,778
63,882
62,826
61,613
60,244
58,725
57,06
55,253
53,312
51,243
49,053
46,75
44,343
41,841
39,252
36,588
33,858
31,071
28,239
25,371
22,478
19,57
16,657
13,75
10,858
7,99
5,157
2,367
-0,371
-3,05
-5,661
-8,198
-10,654
-13,024
-15,304
-17,487
-19,571
-21,552
-23,429
-25,198
-26,859
-28,411
-29,854
-31,188
-32,415
-33,535
-34,55
-35,464
-36,277
-36,993
-37,616
-38,147
-38,591
-38,952
-39,233
-39,439
-39,573
-39,639
-39,643
-39,587
-39,477
-39,316
-39,108
-38,857
-38,565
-38,237
-37,876
-37,483
-37,063
-36,616
-36,146
-35,654
-35,142
-34,612
-34,066
-33,504
-32,929
-32,342
-31,743
-31,134
-30,516
-29,89
-29,259
-28,622
-27,982
-27,339
-26,695
-26,05
-25,407
-24,765
-24,127
-23,494
-22,866
-22,246
-21,635
-21,035
-20,447
-19,873
-19,316
-18,778
-18,261
-17,766
-17,298
-16,857
-16,446
-16,068
-15,725
-15,419
-15,153
-14,927
-14,745
-14,606
-14,513
-14,467
-14,467
-14,515
-14,61
-14,753
-14,944
-15,181
-15,465
-15,795
-16,169
-16,586
-17,044
-17,542
-18,076
-18,645
-19,243
-19,869
-20,519
-21,187
-21,871
-22,564
-23,262
-23,96
-24,653
-25,334
-25,998
-26,639
-27,252
-27,83
-28,37
-28,864
-29,309
-29,699
-30,032
-30,304
-30,51
-30,648
-30,715
-30,71
-30,629
-30,473
-30,239
-29,927
-29,539
-29,077
-28,546
-27,949
-27,291
-26,579
-25,819
-25,019
-24,184
-23,319
-22,429
-21,519
-20,597
-19,672
-18,75
-17,841
-16,95
-16,083
-15,248
-14,45
-13,692
-12,972
-12,292
-11,654
-11,065
-10,544
-10,106
-9,762
-9,522
-9,391
-9,372
-9,466
-9,666
-9,953
-10,307
-10,708
-11,14
-11,598
-12,067
-12,522
-12,929
-13,236
-13,399
-13,385
-13,163
-12,724
-12,074
-11,227
-10,215
-9,089
-7,898
-6,716
-5,625
-4,698
-4,03
-3,7
-3,823
-4,612
-6,191
-8,542
-11,509
-14,693
-17,651
-20,09
-21,641
-21,774
-20,279
-17,32
-13,512
-10,244
-8,908
-10,407
-15,622
-25,322
-39,528
-57,406
-77,006
-94,917
-107,609
-111,974
-104,748
-82,967
-44,351
10,652
78,389
154,269
232,766
312,365
395,424
478,408
555,747
616,636
642,149
624,175
560,2
452,033
317,885
174,275
38,997
-64,937
-129,969
-156,039
-150,789
-133,609
-115,8
-101,939
-92,58
-81,421
-66,96
-51,755
-38,234
-30,22
-28,76
-32,081
-38,428
-45,567
-51,425
-55,18
-56,529
-55,459
-52,479
-48,205
-43,181
-38,114
-33,75
-30,461
-28,375
-27,473
-27,526
-28,353
-29,83
-31,778
-34,005
-36,373
-38,762
-41,083
-43,279
-45,266
-46,962
-48,316
-49,286
-49,865
-50,06
-49,881
-49,354
-48,512
-47,388
-46,015
-44,426
-42,654
-40,738
-38,724
-36,657
-34,583
-32,535
-30,538
-28,61
-26,758
-24,982
-23,281
-21,643
-20,054
-18,505
-16,989
-15,499
-14,031
-12,575
-11,122
-9,664
-8,192
-6,699
-5,18
-3,631
-2,048
-0,43
1,222
2,907
4,622
6,366
8,138
9,939
11,769
13,626
15,51
17,421
19,357
21,316
23,295
25,292
27,3
29,317
31,336
33,353
35,361
37,354
39,325
41,265
43,169
45,027
46,83
48,571
50,24
51,83
53,331
54,736
56,038
57,23
58,306
59,259
60,085
60,778
61,336
61,753
62,026
62,154
62,133
61,961
61,639
61,164
60,538
59,761
58,836
57,763
56,547
55,189
53,696
52,07
50,318
48,446
46,46
44,367
42,174
39,891
37,525
35,085
32,58
30,018
27,408
24,759
22,079
19,376
16,659
13,934
11,211
8,495
5,794
3,116
0,467
-2,146
-4,718
-7,242
-9,713
-12,126
-14,474
-16,754
-18,961
-21,091
-23,141
-25,107
-26,986
-28,775
-30,474
-32,081
-33,595
-35,015
-36,342
-37,577
-38,719
-39,771
-40,733
-41,606
-42,394
-43,097
-43,717
-44,257
-44,718
-45,104
-45,417
-45,658
-45,833
-45,942
-45,989
-45,978
-45,912
-45,794
-45,627
-45,416
-45,164
-44,874
-44,552
-44,2
-43,823
-43,424
-43,008
-42,577
-42,136
-41,687
-41,234
-40,779
-40,325
-39,874
-39,429
-38,993
-38,567
-38,154
-37,755
-37,372
-37,008
-36,662
-36,337
-36,034
-35,753
-35,495
-35,26
-35,049
-34,861
-34,697
-34,555
-34,435
-34,336
-34,257
-34,196
-34,153
-34,124
-34,108
-34,104
-34,109
-34,122
-34,142
-34,168
-34,198
-34,231
-34,267
-34,304
-34,343
-34,381
-34,418
-34,453
-34,486
-34,517
-34,544
-34,568
-34,589
-34,609
-34,627
-34,645
-34,663
-34,683
-34,705
-34,733
-34,766
-34,806
-34,856
-34,917
-34,99
-35,079
-35,185
-35,309
-35,451
-35,613
-35,793
-35,991
-36,205
-36,432
-36,672
-36,922
-37,179
-37,444
-37,713
-37,985
-38,26
-38,534
-38,806
-39,071
-39,325
-39,562
-39,779
-39,97
-40,13
-40,251
-40,327
-40,358
-40,339
-40,267
-40,139
-39,946
-39,686
-39,36
-38,972
-38,525
-38,025
-37,478
-36,891
-36,283
-35,669
-35,066
-34,486
-33,931
-33,402
-32,905
-32,445
-32,025
-31,64
-31,267
-30,881
-30,467
-30,014
-29,514
-28,951
-28,289
-27,502
-26,57
-25,474
-24,213
-22,776
-21,148
-19,317
-17,288
-15,081
-12,744
-10,331
-7,869
-5,377
-2,872
-0,38
2,045
4,358
6,515
8,462
10,143
11,484
12,416
12,873
12,798
12,147
10,891
9,007
6,461
3,191
-0,948
-6,012
-11,911
-18,442
-25,183
-31,647
-37,439
-42,056
-44,857
-45,52
-44,173
-41,374
-38,431
-36,787
-37,484
-41,641
-50,343
-63,792
-81,125
-100,529
-118,808
-132,103
-136,928
-129,584
-106,098
-65,485
-10,099
57,784
134,182
218,391
314,529
419,471
524,78
615,725
670,665
678,626
638,529
556,229
447,384
324,472
199,206
87,217
-1,434
-59,788
-87,908
-97,843
-100,913
-103,649
-107,468
-106,73
-97,823
-82,671
-65,462
-51,34
-42,916
-39,751
-40,541
-43,815
-48,466
-53,26
-56,74
-58,073
-57,057
-54,014
-49,62
-44,437
-38,902
-33,587
-29,084
-25,724
-23,616
-22,661
-22,617
-23,304
-24,584
-26,299
-28,284
-30,401
-32,53
-34,57
-36,448
-38,073
-39,371
-40,294
-40,81
-40,913
-40,609
-39,918
-38,873
-37,518
-35,893
-34,037
-31,985
-29,774
-27,446
-25,048
-22,627
-20,226
-17,876
-15,597
-13,405
-11,305
-9,297
-7,376
-5,529
-3,743
-2,005
-0,309
1,353
2,986
4,6
6,203
7,803
9,408
11,024
12,657
14,31
15,988
17,69
19,418
21,17
22,945
24,742
26,561
28,403
30,265
32,149
34,053
35,974
37,913
39,865
41,826
43,792
45,758
47,718
49,666
51,596
53,5
55,372
57,205
58,99
60,721
62,39
63,988
65,509
66,945
68,289
69,533
70,672
71,7
72,61
73,397
74,058
74,587
74,981
75,237
75,351
75,322
75,147
74,827
74,359
73,745
72,986
72,082
71,038
69,854
68,535
67,086
65,51
63,814
62,002
60,081
58,057
55,937
53,728
51,438
49,073
46,642
44,15
41,606
39,016
36,388
33,728
31,044
28,343
25,63
22,914
20,2
17,495
14,805
12,137
9,496
6,889
4,321
1,798
-0,675
-3,092
-5,448
-7,739
-9,96
-12,106
-14,174
-16,161
-18,062
-19,876
-21,599
-23,229
-24,764
-26,202
-27,541
-28,778
-29,913
-30,944
-31,871
-32,692
-33,408
-34,02
-34,527
-34,93
-35,231
-35,431
-35,53
-35,532
-35,438
-35,251
-34,974
-34,612
-34,168
-33,649
-33,06
-32,405
-31,691
-30,923
-30,108
-29,251
-28,358
-27,435
-26,489
-25,527
-24,556
-23,582
-22,614
-21,658
-20,721
-19,81
-18,931
-18,088
-17,287
-16,531
-15,824
-15,169
-14,571
-14,034
-13,56
-13,154
-12,819
-12,559
-12,376
-12,268
-12,236
-12,274
-12,38
-12,55
-12,777
-13,057
-13,384
-13,755
-14,167
-14,618
-15,106
-15,623
-16,162
-16,71
-17,258
-17,8
-18,327
-18,836
-19,328
-19,807
-20,29
-20,793
-21,325
-21,89
-22,487
-23,102
-23,724
-24,34
-24,933
-25,495
-26,018
-26,49
-26,911
-27,276
-27,567
-27,754
-27,793
-27,627
-27,219
-26,543
-25,574
-24,318
-22,791
-21,023
-19,072
-16,988
-14,814
-12,594
-10,361
-8,141
-5,98
-3,933
-2,063
-0,458
0,812
1,687
2,104
2,029
1,465
0,444
-0,971
-2,701
-4,685
-6,857
-9,153
-11,53
-13,947
-16,354
-18,709
-20,945
-22,984
-24,763
-26,207
-27,257
-27,903
-28,151
-28,027
-27,58
-26,851
-25,876
-24,707
-23,359
-21,814
-20,059
-18,076
-15,868
-13,472
-10,915
-8,223
-5,424
-2,518
0,494
3,597
6,788
10,067
13,419
16,833
20,262
23,596
26,736
29,595
32,101
34,208
35,871
37,019
37,578
37,47
36,615
34,96
32,46
29,082
24,834
19,733
13,816
7,178
-0,099
-7,951
-16,271
-25,014
-34,189
-43,647
-53,146
-62,295
-70,467
-77,098
-81,784
-84,015
-83,35
-79,771
-73,458
-65,184
-56,415
-48,38
-42,184
-38,97
-39,226
-42,564
-48,229
-54,335
-57,666
-55,173
-43,394
-18,504
20,225
70,679
131,063
197,615
269,902
352,817
443,946
537,243
620,043
668,536
669,534
617,901
516,163
385,327
244,017
110,607
6,247
-64,109
-100,246
-108,363
-106,28
-102,823
-101,405
-102,539
-99,011
-89,123
-76,323
-63,449
-54,747
-51,912
-53,428
-57,791
-63,557
-69,071
-73,055
-74,854
-74,14
-71,094
-66,365
-60,562
-54,208
-47,954
-42,425
-37,95
-34,68
-32,572
-31,42
-31,076
-31,417
-32,285
-33,519
-34,986
-36,584
-38,222
-39,834
-41,329
-42,598
-43,568
-44,19
-44,441
-44,322
-43,844
-43,022
-41,885
-40,476
-38,831
-36,99
-34,991
-32,867
-30,663
-28,425
-26,198
-24,029
-21,95
-19,98
-18,129
-16,399
-14,786
-13,282
-11,873
-10,541
-9,271
-8,053
-6,874
-5,724
-4,592
-3,464
-2,326
-1,165
0,027
1,26
2,54
3,872
5,257
6,697
8,191
9,736
11,332
12,979
14,678
16,427
18,229
20,08
21,979
23,926
25,913
27,937
29,987
32,053
34,128
36,2
38,261
40,299
42,305
44,268
46,178
48,025
49,796
51,478
53,05
54,497
55,809
56,981
58,011
58,903
59,658
60,28
60,78
61,163
61,426
61,563
61,556
61,386
61,043
60,526
59,842
58,999
57,992
56,815
55,458
53,902
52,133
50,132
47,863
45,306
42,466
39,361
36,039
32,559
28,961
25,277
21,529
17,735
13,926
10,134
6,386
2,719
-0,826
-4,205
-7,345
-10,194
-12,733
-14,965
-16,927
-18,676
-20,248
-21,669
-22,966
-24,155
-25,256
-26,292
-27,27
-28,203
-29,113
-30,031
-31,011
-32,094
-33,295
-34,611
-36,016
-37,467
-38,936
-40,399
-41,83
-43,213
-44,534
-45,781
-46,958
-48,069
-49,108
-50,064
-50,913
-51,634
-52,221
-52,672
-52,997
-53,213
-53,332
-53,363
-53,322
-53,218
-53,055
-52,839
-52,563
-52,224
-51,818
-51,348
-50,818
-50,236
-49,605
-48,929
-48,21
-47,45
-46,653
-45,819
-44,952
-44,051
-43,121
-42,166
-41,194
-40,211
-39,225
-38,241
-37,265
-36,305
-35,363
-34,445
-33,555
-32,695
-31,868
-31,078
-30,327
-29,618
-28,953
-28,336
-27,767
-27,248
-26,781
-26,366
-26,003
-25,692
-25,433
-25,225
-25,065
-24,953
-24,885
-24,861
-24,877
-24,932
-25,023
-25,145
-25,297
-25,476
-25,677
-25,898
-26,135
-26,385
-26,646
-26,915
-27,191
-27,473
-27,759
-28,048
-28,34
-28,634
-28,931
-29,229
-29,53
-29,832
-30,134
-30,438
-30,743
-31,046
-31,347
-31,644
-31,938
-32,227
-32,509
-32,785
-33,053
-33,315
-33,569
-33,817
-34,056
-34,285
-34,501
-34,705
-34,893
-35,064
-35,214
-35,339
-35,435
-35,502
-35,536
-35,533
-35,485
-35,38
-35,214
-34,987
-34,699
-34,353
-33,953
-33,507
-33,032
-32,549
-32,079
-31,637
-31,235
-30,878
-30,577
-30,347
-30,204
-30,162
-30,218
-30,359
-30,57
-30,832
-31,118
-31,382
-31,562
-31,581
-31,378
-30,907
-30,131
-29,011
-27,501
-25,557
-23,141
-20,242
-16,87
-13,054
-8,826
-4,23
0,667
5,758
10,906
15,963
20,804
25,321
29,403
32,899
35,653
37,511
38,35
38,116
36,767
34,252
30,537
25,597
19,44
12,174
3,893
-5,383
-15,529
-26,331
-37,418
-48,111
-57,744
-65,825
-71,768
-75,028
-75,484
-73,276
-69,105
-64,423
-60,525
-58,436
-59,265
-63,689
-71,425
-81,444
-91,523
-98,328
-98,659
-89,395
-67,348
-29,809
23,166
88,552
162,422
239,461
318,165
400,993
484,832
563,061
623,64
648,743
630,359
568,731
469,285
347,115
216,232
89,95
-14,305
-86,597
-124,35
-130,325
-118,706
-100,535
-79,946
-62,759
-47,285
-34,558
-30,827
-33,278
-40,97
-51,979
-59,921
-66,181
-71,902
-76,052
-80,101
-82,633
-82,142
-79,456
-75,012
-69,535
-64,085
-59,142
-54,873
-51,447
-48,851
-46,859
-45,311
-44,112
-43,109
-42,183
-41,267
-40,256
-39,09
-37,757
-36,215
-34,428
-32,372
-30,024
-27,404
-24,564
-21,576
-18,534
-15,528
-12,629
-9,912
-7,44
-5,264
-3,426
-1,955
-0,866
-0,163
0,167
0,152
-0,164
-0,73
-1,486
-2,362
-3,274
-4,147
-4,916
-5,526
-5,935
-6,112
-6,037
-5,696
-5,088
-4,222
-3,112
-1,787
-0,288
1,349
3,092
4,906
6,757
8,608
10,422
12,17
13,835
15,405
16,874
18,24
19,508
20,686
21,786
22,833
23,871
24,936
26,065
27,292
28,647
30,167
31,906
33,906
36,194
38,796
41,722
44,981
48,58
52,509
56,743
61,229
65,887
70,627
75,351
79,962
84,368
88,463
92,13
95,265
97,787
99,619
100,699
100,965
100,349
98,818
96,377
93,064
88,957
84,159
78,787
72,971
66,846
60,545
54,204
47,941
41,843
36,002
30,501
25,429
20,888
16,947
13,633
10,948
8,861
7,313
6,228
5,51
5,045
4,737
4,504
4,28
4,026
3,702
3,265
2,666
1,847
0,769
-0,588
-2,228
-4,147
-6,316
-8,694
-11,22
-13,817
-16,423
-18,996
-21,505
-23,936
-26,275
-28,504
-30,607
-32,569
-34,374
-36,011
-37,471
-38,745
-39,834
-40,749
-41,507
-42,138
-42,665
-43,097
-43,445
-43,709
-43,89
-43,991
-44,01
-43,945
-43,793
-43,558
-43,244
-42,86
-42,409
-41,896
-41,322
-40,688
-39,995
-39,246
-38,446
-37,6
-36,714
-35,795
-34,851
-33,893
-32,929
-31,967
-31,014
-30,075
-29,156
-28,263
-27,4
-26,571
-25,781
-25,034
-24,336
-23,69
-23,101
-22,573
-22,108
-21,708
-21,377
-21,114
-20,921
-20,796
-20,74
-20,751
-20,826
-20,963
-21,158
-21,409
-21,712
-22,061
-22,453
-22,881
-23,342
-23,83
-24,339
-24,866
-25,404
-25,949
-26,498
-27,046
-27,591
-28,127
-28,654
-29,167
-29,663
-30,14
-30,594
-31,023
-31,422
-31,79
-32,122
-32,417
-32,67
-32,88
-33,044
-33,163
-33,236
-33,263
-33,245
-33,185
-33,085
-32,949
-32,779
-32,576
-32,341
-32,075
-31,78
-31,458
-31,111
-30,74
-30,348
-29,94
-29,521
-29,095
-28,661
-28,214
-27,753
-27,281
-26,8
-26,319
-25,847
-25,391
-24,968
-24,6
-24,31
-24,116
-24,028
-24,037
-24,138
-24,326
-24,603
-24,978
-25,45
-25,999
-26,612
-27,277
-27,97
-28,669
-29,325
-29,858
-30,196
-30,277
-30,06
-29,539
-28,707
-27,547
-26,056
-24,225
-22,064
-19,626
-16,948
-14,06
-11,028
-7,925
-4,872
-2,044
0,418
2,382
3,709
4,298
4,044
2,824
0,587
-2,738
-7,283
-13,02
-19,816
-27,45
-35,44
-43,307
-50,705
-57,129
-61,958
-64,941
-66,158
-66,056
-65,791
-66,45
-68,676
-73,268
-81,014
-91,904
-105,133
-119,169
-131,219
-138,126
-137,233
-125,57
-99,957
-59,684
-6,962
55,749
124,641
197,841
278,777
367,251
457,02
538,155
593,338
606,381
572,961
494,416
378,701
243,789
104,631
-22,169
-116,784
-173,077
-192,082
-183,189
-166,247
-152,14
-143,975
-140,128
-132,925
-120,34
-105,527
-91,597
-82,211
-78,232
-77,946
-79,98
-82,996
-85,7
-87,156
-86,787
-84,509
-80,676
-75,883
-70,642
-65,332
-60,406
-56,337
-53,381
-51,592
-50,862
-50,952
-51,66
-52,849
-54,36
-56,01
-57,659
-59,169
-60,433
-61,411
-62,064
-62,356
-62,274
-61,81
-60,962
-59,762
-58,246
-56,45
-54,415
-52,178
-49,771
-47,24
-44,633
-41,999
-39,389
-36,836
-34,361
-31,979
-29,698
-27,522
-25,45
-23,471
-21,567
-19,725
-17,934
-16,184
-14,469
-12,778
-11,097
-9,414
-7,715
-5,992
-4,237
-2,443
-0,601
1,291
3,238
5,24
7,298
9,411
11,582
13,812
16,103
18,455
20,868
23,34
25,87
28,456
31,094
33,778
36,502
39,26
42,045
44,848
47,662
50,476
53,282
56,068
58,825
61,541
64,204
66,802
69,324
71,757
74,091
76,312
78,411
80,376
82,198
83,868
85,376
86,714
87,875
88,853
89,641
90,235
90,631
90,827
90,819
90,609
90,195
89,58
88,767
87,757
86,556
85,168
83,6
81,857
79,949
77,881
75,665
73,309
70,823
68,218
65,505
62,695
59,801
56,833
53,804
50,725
47,608
44,465
41,308
38,147
34,995
31,861
28,756
25,69
22,672
19,712
16,816
13,993
11,249
8,592
6,026
3,559
1,193
-1,065
-3,212
-5,246
-7,162
-8,959
-10,635
-12,189
-13,621
-14,929
-16,115
-17,179
-18,123
-18,947
-19,655
-20,247
-20,729
-21,102
-21,37
-21,537
-21,608
-21,587
-21,479
-21,288
-21,018
-20,675
-20,263
-19,787
-19,252
-18,663
-18,024
-17,342
-16,621
-15,867
-15,085
-14,28
-13,458
-12,625
-11,786
-10,946
-10,111
-9,287
-8,479
-7,692
-6,932
-6,205
-5,514
-4,865
-4,262
-3,708
-3,208
-2,764
-2,379
-2,055
-1,796
-1,603
-1,477
-1,42
-1,434
-1,519
-1,674
-1,901
-2,198
-2,565
-2,998
-3,497
-4,058
-4,679
-5,356
-6,086
-6,863
-7,682
-8,538
-9,425
-10,336
-11,264
-12,2
-13,138
-14,07
-14,989
-15,885
-16,753
-17,584
-18,37
-19,106
-19,783
-20,397
-20,939
-21,405
-21,789
-22,086
-22,293
-22,406
-22,422
-22,34
-22,161
-21,886
-21,515
-21,052
-20,5
-19,865
-19,151
-18,363
-17,506
-16,587
-15,612
-14,588
-13,525
-12,432
-11,321
-10,201
-9,082
-7,976
-6,89
-5,831
-4,804
-3,814
-2,869
-1,981
-1,165
-0,433
0,201
0,726
1,133
1,419
1,588
1,655
1,636
1,544
1,395
1,192
0,945
0,663
0,361
0,066
-0,196
-0,398
-0,515
-0,52
-0,399
-0,164
0,149
0,471
0,739
0,906
0,927
0,755
0,325
-0,432
-1,599
-3,242
-5,444
-8,368
-12,106
-16,64
-21,818
-27,24
-32,398
-36,855
-40,127
-41,62
-41,06
-38,577
-34,673
-30,605
-27,823
-27,429
-30,569
-38,321
-50,877
-67,401
-86,179
-104,088
-117,332
-122,461
-115,824
-93,571
-54,315
0,14
67,339
143,018
224,506
314,02
410,233
506,617
592,74
650,786
665,047
630,087
546,385
424,357
283,132
140,988
18,154
-70,113
-121,312
-140,688
-141,909
-138,438
-135,596
-133,637
-128,166
-116,687
-101,693
-86,859
-76,265
-71,776
-72,456
-76,658
-82,475
-88,028
-91,784
-92,842
-90,862
-86,009
-78,865
-70,084
-60,313
-50,307
-40,83
-32,337
-25,042
-18,995
-14,096
-10,293
-7,577
-5,863
-5,015
-4,927
-5,512
-6,694
-8,417
-10,58
-13,036
-15,674
-18,405
-21,156
-23,873
-26,482
-28,884
-30,998
-32,76
-34,123
-35,074
-35,6
-35,699
-35,385
-34,689
-33,656
-32,346
-30,802
-29,053
-27,13
-25,062
-22,895
-20,69
-18,493
-16,336
-14,248
-12,24
-10,324
-8,511
-6,794
-5,159
-3,588
-2,062
-0,57
0,894
2,342
3,79
5,265
6,795
8,395
10,074
11,84
13,692
15,622
17,617
19,644
21,677
23,697
25,695
27,673
29,634
31,578
33,505
35,417
37,313
39,203
41,087
42,96
44,833
46,724
48,669
50,726
52,931
55,297
57,821
60,484
63,256
66,103
68,974
71,801
74,525
77,094
79,468
81,624
83,521
85,104
86,305
87,031
87,218
86,832
85,853
84,279
82,129
79,437
76,267
72,712
68,851
64,745
60,445
55,979
51,395
46,749
42,109
37,55
33,135
28,908
24,905
21,157
17,673
14,447
11,448
8,619
5,918
3,321
0,811
-1,613
-3,958
-6,238
-8,466
-10,653
-12,811
-14,946
-17,065
-19,179
-21,286
-23,377
-25,432
-27,42
-29,319
-31,116
-32,803
-34,378
-35,843
-37,194
-38,438
-39,582
-40,632
-41,594
-42,469
-43,259
-43,966
-44,597
-45,158
-45,66
-46,109
-46,512
-46,874
-47,197
-47,486
-47,742
-47,965
-48,152
-48,304
-48,421
-48,503
-48,552
-48,57
-48,556
-48,512
-48,44
-48,341
-48,215
-48,061
-47,88
-47,672
-47,435
-47,17
-46,876
-46,554
-46,202
-45,821
-45,41
-44,971
-44,502
-44,006
-43,482
-42,933
-42,359
-41,763
-41,147
-40,513
-39,864
-39,203
-38,533
-37,857
-37,178
-36,498
-35,822
-35,151
-34,487
-33,835
-33,196
-32,572
-31,967
-31,382
-30,819
-30,281
-29,77
-29,288
-28,837
-28,42
-28,037
-27,692
-27,385
-27,119
-26,894
-26,71
-26,569
-26,471
-26,413
-26,396
-26,416
-26,472
-26,56
-26,679
-26,825
-26,996
-27,188
-27,399
-27,628
-27,871
-28,126
-28,389
-28,655
-28,921
-29,18
-29,431
-29,667
-29,884
-30,078
-30,242
-30,377
-30,477
-30,536
-30,548
-30,5
-30,385
-30,203
-29,955
-29,646
-29,282
-28,874
-28,439
-27,998
-27,572
-27,178
-26,822
-26,506
-26,233
-26,01
-25,852
-25,776
-25,789
-25,88
-26,039
-26,246
-26,472
-26,68
-26,814
-26,8
-26,581
-26,116
-25,386
-24,392
-23,132
-21,597
-19,774
-17,64
-15,195
-12,46
-9,457
-6,221
-2,806
0,719
4,25
7,662
10,856
13,761
16,331
18,552
20,396
21,824
22,777
23,176
22,957
22,084
20,539
18,313
15,395
11,792
7,539
2,68
-2,725
-8,682
-15,304
-22,583
-30,374
-38,417
-46,18
-53,114
-58,864
-62,901
-64,599
-63,91
-61,109
-56,869
-52,704
-49,859
-49,096
-51,604
-58,312
-68,802
-81,928
-95,615
-106,352
-110,978
-106,744
-89,952
-57,212
-8,765
52,482
123,52
199,283
279,352
368,193
462,217
554,968
634,416
678,725
676,332
623,395
523,865
398,434
267,926
152,029
66,317
11,491
-18,39
-34,562
-48,258
-62,681
-76,445
-84,628
-83,752
-75,296
-63,234
-52,681
-46,578
-45,056
-47,273
-51,9
-57,915
-64,555
-70,704
-75,176
-77,384
-77,285
-75,171
-71,561
-66,915
-61,642
-56,258
-51,283
-46,988
-43,435
-40,564
-38,219
-36,286
-34,69
-33,329
-32,1
-30,946
-29,847
-28,793
-27,785
-26,806
-25,83
-24,863
-23,922
-23,033
-22,227
-21,526
-20,948
-20,513
-20,244
-20,144
-20,201
-20,378
-20,623
-20,903
-21,197
-21,483
-21,738
-21,919
-21,979
-21,886
-21,613
-21,142
-20,458
-19,546
-18,393
-17,011
-15,423
-13,668
-11,797
-9,843
-7,828
-5,775
-3,704
-1,64
0,392
2,383
4,332
6,237
8,097
9,908
11,669
13,39
15,086
16,776
18,483
20,219
21,99
23,803
25,66
27,562
29,506
31,485
33,485
35,495
37,504
39,503
41,482
43,43
45,331
47,172
48,938
50,617
52,198
53,67
55,022
56,247
57,336
58,283
59,084
59,732
60,223
60,552
60,713
60,703
60,519
60,159
59,622
58,907
58,016
56,951
55,717
54,317
52,759
51,047
49,191
47,198
45,078
42,84
40,496
38,055
35,529
32,929
30,268
27,556
24,805
22,028
19,234
16,436
13,644
10,869
8,121
5,41
2,746
0,137
-2,406
-4,877
-7,267
-9,57
-11,78
-13,891
-15,9
-17,803
-19,598
-21,283
-22,858
-24,323
-25,678
-26,926
-28,069
-29,111
-30,055
-30,906
-31,668
-32,347
-32,948
-33,476
-33,938
-34,34
-34,686
-34,984
-35,238
-35,455
-35,64
-35,8
-35,939
-36,063
-36,177
-36,286
-36,394
-36,506
-36,625
-36,753
-36,895
-37,05
-37,222
-37,412
-37,618
-37,842
-38,082
-38,337
-38,605
-38,884
-39,172
-39,464
-39,757
-40,049
-40,335
-40,612
-40,876
-41,124
-41,353
-41,558
-41,738
-41,889
-42,008
-42,094
-42,143
-42,153
-42,123
-42,051
-41,936
-41,778
-41,575
-41,327
-41,035
-40,701
-40,324
-39,907
-39,452
-38,963
-38,442
-37,895
-37,324
-36,737
-36,138
-35,532
-34,925
-34,323
-33,732
-33,158
-32,605
-32,079
-31,584
-31,127
-30,71
-30,339
-30,018
-29,749
-29,537
-29,384
-29,294
-29,267
-29,307
-29,413
-29,588
-29,83
-30,142
-30,521
-30,966
-31,476
-32,048
-32,677
-33,359
-34,087
-34,856
-35,657
-36,483
-37,328
-38,182
-39,038
-39,89
-40,731
-41,554
-42,353
-43,12
-43,848
-44,527
-45,151
-45,712
-46,201
-46,611
-46,934
-47,164
-47,297
-47,331
-47,262
-47,087
-46,798
-46,392
-45,875
-45,249
-44,524
-43,709
-42,811
-41,847
-40,842
-39,816
-38,794
-37,787
-36,8
-35,838
-34,91
-34,021
-33,184
-32,395
-31,632
-30,881
-30,129
-29,363
-28,579
-27,755
-26,851
-25,838
-24,696
-23,418
-22,02
-20,505
-18,865
-17,103
-15,224
-13,257
-11,26
-9,272
-7,316
-5,417
-3,577
-1,827
-0,222
1,204
2,431
3,442
4,227
4,751
4,94
4,754
4,174
3,193
1,821
0,026
-2,255
-5,079
-8,492
-12,546
-17,339
-22,912
-29,195
-35,97
-42,808
-49,245
-54,921
-59,448
-62,331
-63,325
-62,556
-60,566
-58,541
-57,67
-58,688
-62,283
-69,126
-79,319
-92,182
-105,987
-117,736
-124,303
-122,959
-110,976
-85,766
-45,111
10,566
77,718
152,195
229,147
307,657
390,892
476,169
556,901
621,102
650,763
637,66
582,055
489,564
374,476
249,421
126,508
21,079
-56,148
-100,066
-113,74
-110,286
-102,206
-96,377
-93,807
-89,37
-80,206
-68,063
-55,955
-47,746
-45,025
-46,627
-51,003
-56,627
-61,967
-65,803
-67,462
-66,678
-63,69
-59,172
-53,753
-47,941
-42,326
-37,482
-33,715
-31,165
-29,781
-29,339
-29,672
-30,644
-32,089
-33,844
-35,777
-37,763
-39,704
-41,519
-43,106
-44,378
-45,284
-45,785
-45,875
-45,558
-44,847
-43,773
-42,375
-40,696
-38,775
-36,648
-34,353
-31,932
-29,434
-26,909
-24,408
-21,966
-19,608
-17,349
-15,198
-13,155
-11,217
-9,371
-7,603
-5,899
-4,252
-2,653
-1,098
0,424
1,922
3,407
4,889
6,375
7,874
9,39
10,928
12,491
14,081
15,698
17,339
19,006
20,699
22,418
24,164
25,938
27,739
29,566
31,418
33,292
35,185
37,094
39,012
40,934
42,856
44,771
46,673
48,555
50,41
52,232
54,013
55,744
57,42
59,031
60,57
62,029
63,401
64,68
65,858
66,929
67,887
68,727
69,443
70,031
70,487
70,807
70,986
71,024
70,918
70,665
70,267
69,721
69,03
68,195
67,218
66,1
64,847
63,46
61,945
60,306
58,548
56,677
54,698
52,618
50,443
48,18
45,837
43,421
40,938
38,397
35,803
33,166
30,492
27,79
25,065
22,328
19,584
16,842
14,11
11,395
8,704
6,044
3,423
0,846
-1,681
-4,15
-6,557
-8,896
-11,163
-13,353
-15,46
-17,483
-19,417
-21,26
-23,009
-24,662
-26,218
-27,675
-29,033
-30,291
-31,449
-32,506
-33,464
-34,324
-35,085
-35,751
-36,323
-36,804
-37,197
-37,504
-37,73
-37,877
-37,95
-37,953
-37,89
-37,765
-37,583
-37,348
-37,065
-36,739
-36,374
-35,976
-35,548
-35,094
-34,62
-34,129
-33,625
-33,112
-32,593
-32,071
-31,55
-31,032
-30,521
-30,019
-29,529
-29,052
-28,591
-28,147
-27,72
-27,314
-26,927
-26,561
-26,217
-25,894
-25,594
-25,316
-25,061
-24,827
-24,616
-24,426
-24,257
-24,108
-23,979
-23,868
-23,774
-23,697
-23,635
-23,587
-23,553
-23,53
-23,518
-23,515
-23,521
-23,534
-23,553
-23,577
-23,606
-23,64
-23,678
-23,72
-23,767
-23,818
-23,873
-23,932
-23,996
-24,063
-24,133
-24,206
-24,282
-24,36
-24,439
-24,519
-24,6
-24,681
-24,763
-24,844
-24,926
-25,008
-25,09
-25,174
-25,26
-25,348
-25,441
-25,537
-25,639
-25,747
-25,861
-25,981
-26,107
-26,236
-26,367
-26,497
-26,625
-26,748
-26,865
-26,973
-27,07
-27,159
-27,237
-27,303
-27,357
-27,396
-27,419
-27,424
-27,408
-27,368
-27,302
-27,204
-27,074
-26,911
-26,71
-26,469
-26,182
-25,841
-25,442
-24,985
-24,474
-23,911
-23,305
-22,666
-22,011
-21,363
-20,739
-20,155
-19,625
-19,151
-18,746
-18,418
-18,17
-18,014
-17,946
-17,955
-18,022
-18,124
-18,222
-18,276
-18,24
-18,054
-17,679
-17,08
-16,233
-15,134
-13,773
-12,146
-10,259
-8,109
-5,706
-3,087
-0,291
2,624
5,574
8,487
11,284
13,879
16,212
18,226
19,883
21,166
22,063
22,555
22,608
22,168
21,187
19,655
17,591
15,035
12,027
8,574
4,695
0,431
-4,169
-9,092
-14,426
-20,218
-26,391
-32,701
-38,717
-44,016
-48,284
-51,121
-52,004
-50,682
-47,284
-42,423
-37,258
-32,685
-29,556
-29,215
-32,668
-40,337
-50,837
-60,371
-66,27
-67,35
-64,177
-59,291
-49,56
-28,692
8,962
70,863
156,398
260,121
377,116
494,52
597,754
671,966
701,516
680,858
615,408
516,206
395,557
265,566
135,506
15,576
-78,891
-138,446
-160,294
-147,775
-114,001
-71,081
-28,936
1,585
14,971
9,833
-10,31
-34,71
-54,004
-63,727
-64,363
-61,784
-60,19
-60,298
-61,188
-60,361
-56,937
-51,844
-46,007
-40,445
-35,784
-32,033
-29,213
-27,365
-26,324
-25,96
-26,195
-26,906
-28,013
-29,446
-31,101
-32,89
-34,739
-36,557
-38,241
-39,684
-40,802
-41,557
-41,936
-41,94
-41,581
-40,866
-39,817
-38,471
-36,861
-35,023
-32,993
-30,805
-28,499
-26,125
-23,727
-21,35
-19,028
-16,776
-14,602
-12,507
-10,489
-8,541
-6,655
-4,815
-3,011
-1,235
0,521
2,262
3,997
5,735
7,485
9,257
11,056
12,887
14,754
16,657
18,598
20,574
22,583
24,623
26,689
28,778
30,89
33,021
35,167
37,326
39,493
41,663
43,832
45,993
48,139
50,263
52,357
54,413
56,423
58,38
60,274
62,098
63,843
65,502
67,066
68,528
69,88
71,116
72,229
73,212
74,062
74,772
75,34
75,762
76,036
76,161
76,136
75,96
75,634
75,159
74,536
73,769
72,859
71,81
70,626
69,312
67,872
66,312
64,639
62,858
60,977
59,001
56,937
54,794
52,577
50,294
47,952
45,557
43,118
40,64
38,131
35,596
33,043
30,476
27,901
25,324
22,75
20,182
17,627
15,087
12,568
10,073
7,605
5,17
2,769
0,407
-1,914
-4,19
-6,418
-8,596
-10,721
-12,791
-14,803
-16,756
-18,646
-20,473
-22,233
-23,926
-25,548
-27,099
-28,577
-29,979
-31,305
-32,553
-33,721
-34,809
-35,815
-36,738
-37,578
-38,334
-39,005
-39,593
-40,096
-40,516
-40,854
-41,111
-41,289
-41,389
-41,415
-41,369
-41,253
-41,07
-40,825
-40,519
-40,156
-39,741
-39,276
-38,767
-38,216
-37,629
-37,009
-36,361
-35,69
-35
-34,297
-33,583
-32,865
-32,146
-31,43
-30,723
-30,028
-29,349
-28,688
-28,051
-27,438
-26,853
-26,298
-25,773
-25,281
-24,821
-24,394
-24,001
-23,641
-23,314
-23,02
-22,758
-22,528
-22,329
-22,16
-22,019
-21,906
-21,818
-21,754
-21,713
-21,692
-21,689
-21,702
-21,729
-21,768
-21,817
-21,872
-21,933
-21,996
-22,061
-22,124
-22,185
-22,243
-22,297
-22,347
-22,393
-22,437
-22,477
-22,516
-22,553
-22,591
-22,629
-22,668
-22,71
-22,754
-22,803
-22,856
-22,915
-22,981
-23,054
-23,136
-23,229
-23,332
-23,449
-23,578
-23,723
-23,884
-24,063
-24,262
-24,48
-24,721
-24,984
-25,27
-25,579
-25,91
-26,26
-26,628
-27,01
-27,404
-27,807
-28,214
-28,624
-29,034
-29,442
-29,846
-30,244
-30,633
-31,01
-31,372
-31,716
-32,037
-32,331
-32,595
-32,822
-33,011
-33,159
-33,261
-33,315
-33,315
-33,252
-33,125
-32,933
-32,679
-32,368
-32,006
-31,603
-31,173
-30,737
-30,309
-29,905
-29,536
-29,207
-28,93
-28,718
-28,575
-28,513
-28,527
-28,602
-28,72
-28,856
-28,972
-29,039
-29,016
-28,846
-28,5
-27,952
-27,181
-26,18
-24,926
-23,39
-21,566
-19,447
-17,041
-14,389
-11,528
-8,509
-5,412
-2,297
0,763
3,678
6,398
8,884
11,098
13,002
14,515
15,536
15,994
15,834
15,041
13,621
11,537
8,791
5,41
1,389
-3,204
-8,374
-14,269
-20,865
-28,006
-35,441
-42,577
-48,821
-53,84
-57,081
-57,941
-56,446
-52,919
-48,075
-43,48
-40,708
-40,796
-44,863
-53,976
-66,467
-79,943
-93,394
-103,367
-109,225
-111,011
-101,071
-73,785
-25,453
45,974
131,476
220,988
310,555
399,189
486,644
570,146
637,816
669,085
652,715
584,555
467,955
324,851
174,898
37,783
-62,835
-121,604
-140,798
-129,805
-109,839
-92,121
-80,377
-74,554
-67,494
-57,327
-46,658
-37,762
-34,215
-36,765
-43,358
-52,107
-60,855
-67,753
-72,143
-73,831
-72,902
-69,915
-65,535
-60,381
-55,158
-50,543
-46,878
-44,268
-42,695
-41,973
-41,947
-42,51
-43,503
-44,766
-46,185
-47,665
-49,132
-50,53
-51,771
-52,752
-53,402
-53,671
-53,541
-53,017
-52,106
-50,826
-49,206
-47,283
-45,096
-42,683
-40,08
-37,324
-34,459
-31,533
-28,597
-25,7
-22,88
-20,162
-17,564
-15,092
-12,748
-10,531
-8,432
-6,439
-4,544
-2,738
-1,014
0,632
2,212
3,734
5,209
6,65
8,065
9,464
10,855
12,245
13,64
15,045
16,464
17,9
19,359
20,845
22,363
23,918
25,514
27,155
28,844
30,583
32,373
34,214
36,104
38,042
40,023
42,043
44,097
46,178
48,279
50,392
52,507
54,616
56,707
58,771
60,795
62,768
64,68
66,517
68,269
69,923
71,469
72,895
74,191
75,346
76,352
77,198
77,878
78,383
78,708
78,845
78,792
78,544
78,099
77,456
76,615
75,577
74,345
72,922
71,314
69,527
67,568
65,444
63,165
60,74
58,18
55,496
52,699
49,802
46,817
43,756
40,632
37,457
34,245
31,007
27,755
24,502
21,259
18,037
14,847
11,698
8,599
5,56
2,588
-0,309
-3,126
-5,856
-8,496
-11,042
-13,49
-15,839
-18,088
-20,237
-22,286
-24,237
-26,092
-27,852
-29,522
-31,105
-32,604
-34,024
-35,369
-36,644
-37,853
-39
-40,089
-41,126
-42,114
-43,057
-43,959
-44,822
-45,651
-46,446
-47,211
-47,948
-48,658
-49,342
-50,001
-50,635
-51,245
-51,83
-52,389
-52,922
-53,426
-53,901
-54,345
-54,755
-55,129
-55,465
-55,762
-56,016
-56,225
-56,389
-56,504
-56,57
-56,586
-56,551
-56,465
-56,328
-56,141
-55,904
-55,621
-55,292
-54,922
-54,512
-54,067
-53,589
-53,084
-52,556
-52,009
-51,447
-50,876
-50,3
-49,724
-49,152
-48,591
-48,042
-47,513
-47,006
-46,526
-46,076
-45,661
-45,284
-44,949
-44,657
-44,413
-44,217
-44,072
-43,979
-43,938
-43,948
-44,01
-44,122
-44,281
-44,485
-44,73
-45,014
-45,331
-45,677
-46,047
-46,437
-46,842
-47,256
-47,676
-48,095
-48,51
-48,917
-49,311
-49,69
-50,049
-50,386
-50,698
-50,981
-51,234
-51,453
-51,635
-51,775
-51,872
-51,922
-51,924
-51,874
-51,772
-51,617
-51,411
-51,154
-50,848
-50,495
-50,095
-49,651
-49,165
-48,639
-48,076
-47,477
-46,842
-46,174
-45,477
-44,755
-44,007
-43,232
-42,425
-41,585
-40,716
-39,821
-38,906
-37,977
-37,045
-36,124
-35,238
-34,41
-33,656
-32,989
-32,418
-31,952
-31,605
-31,392
-31,323
-31,393
-31,586
-31,883
-32,263
-32,695
-33,132
-33,513
-33,759
-33,805
-33,6
-33,098
-32,254
-31,021
-29,351
-27,208
-24,577
-21,467
-17,901
-13,914
-9,543
-4,858
0,039
5,017
9,935
14,673
19,122
23,156
26,633
29,41
31,354
32,377
32,414
31,402
29,284
26,016
21,569
15,988
9,337
1,635
-7,011
-16,407
-26,268
-36,068
-45,222
-53,267
-59,664
-63,8
-65,422
-64,614
-61,788
-58,079
-54,717
-52,654
-53,1
-57,181
-65,081
-76,089
-88,742
-100,3
-107,523
-107,406
-96,272
-70,292
-28,869
25,526
90,509
161,956
239,417
327,291
422,174
515,671
593,524
634,162
627,001
571,964
475,717
354,655
223,078
93,944
-17,064
-99,38
-147,14
-162,455
-158,292
-146,877
-135,734
-127,024
-115,961
-100,168
-81,862
-64,204
-51,433
-45,394
-44,813
-47,956
-53,091
-58,416
-62,496
-64,539
-64,152
-61,521
-57,329
-52,204
-46,66
-41,317
-36,76
-33,282
-31,008
-29,859
-29,569
-29,94
-30,809
-31,984
-33,313
-34,686
-36,009
-37,21
-38,228
-38,993
-39,454
-39,581
-39,365
-38,819
-37,961
-36,814
-35,429
-33,861
-32,172
-30,428
-28,655
-26,852
-25,033
-23,215
-21,427
-19,703
-18,053
-16,474
-14,963
-13,509
-12,107
-10,748
-9,403
-8,032
-6,602
-5,07
-3,425
-1,686
0,142
2,056
4,054
6,145
8,327
10,585
12,918
15,329
17,82
20,396
23,05
25,762
28,52
31,305
34,112
36,946
39,808
42,696
45,606
48,533
51,471
54,42
57,374
60,316
63,231
66,106
68,927
71,689
74,381
76,993
79,515
81,933
84,237
86,416
88,461
90,361
92,107
93,688
95,097
96,33
97,384
98,254
98,938
99,432
99,736
99,849
99,772
99,504
99,046
98,401
97,57
96,557
95,366
94,003
92,471
90,777
88,926
86,925
84,78
82,498
80,087
77,552
74,903
72,147
69,291
66,344
63,313
60,206
57,031
53,796
50,509
47,176
43,806
40,405
36,982
33,543
30,095
26,646
23,201
19,769
16,356
12,969
9,615
6,302
3,036
-0,176
-3,326
-6,407
-9,411
-12,332
-15,162
-17,894
-20,522
-23,039
-25,439
-27,715
-29,863
-31,877
-33,753
-35,486
-37,073
-38,511
-39,797
-40,929
-41,907
-42,729
-43,396
-43,908
-44,267
-44,474
-44,533
-44,446
-44,217
-43,852
-43,355
-42,732
-41,992
-41,14
-40,187
-39,14
-38,01
-36,806
-35,538
-34,218
-32,856
-31,462
-30,048
-28,624
-27,2
-25,787
-24,393
-23,027
-21,699
-20,416
-19,184
-18,011
-16,903
-15,864
-14,899
-14,012
-13,206
-12,483
-11,848
-11,299
-10,84
-10,469
-10,186
-9,99
-9,878
-9,847
-9,895
-10,016
-10,205
-10,457
-10,766
-11,127
-11,531
-11,974
-12,448
-12,949
-13,469
-14,003
-14,546
-15,094
-15,641
-16,185
-16,722
-17,249
-17,763
-18,262
-18,745
-19,21
-19,654
-20,076
-20,474
-20,844
-21,187
-21,499
-21,78
-22,029
-22,244
-22,427
-22,58
-22,703
-22,798
-22,865
-22,906
-22,921
-22,912
-22,878
-22,819
-22,733
-22,62
-22,479
-22,311
-22,111
-21,878
-21,608
-21,294
-20,933
-20,528
-20,081
-19,595
-19,079
-18,539
-17,988
-17,444
-16,917
-16,417
-15,952
-15,524
-15,143
-14,816
-14,549
-14,348
-14,214
-14,132
-14,082
-14,039
-13,967
-13,831
-13,597
-13,218
-12,668
-11,927
-10,983
-9,833
-8,465
-6,861
-5,011
-2,905
-0,54
2,058
4,851
7,792
10,805
13,83
16,809
19,666
22,356
24,843
27,098
29,093
30,779
32,081
32,919
33,225
32,954
32,08
30,579
28,438
25,667
22,256
18,236
13,598
8,244
2,182
-4,477
-11,489
-18,367
-24,612
-29,856
-33,622
-35,379
-35,04
-32,813
-29,418
-26,29
-24,634
-25,317
-29,293
-37,144
-48,479
-62,209
-76,143
-86,859
-91,186
-86,082
-68,352
-35,777
11,16
69,737
136,418
207,219
281,827
361,195
440,976
512,268
561,565
576,141
552,026
494,375
412,769
315,54
210,873
107,074
15,23
-50,044
-81,665
-83,733
-68,788
-52,263
-43,37
-41,988
-42,653
-41,847
-39,495
-37,866
-40,382
-47,604
-57,768
-69,328
-80,501
-89,73
-96,515
-100,521
-101,551
-100,084
-96,716
-91,893
-86,206
-80,231
-74,265
-68,538
-63,193
-58,174
-53,449
-49,026
-44,863
-40,946
-37,313
-34,016
-31,133
-28,769
-26,972
-25,751
-25,104
-25
-25,405
-26,275
-27,557
-29,19
-31,123
-33,307
-35,689
-38,206
-40,777
-43,304
-45,692
-47,85
-49,705
-51,21
-52,324
-53,024
-53,302
-53,163
-52,62
-51,696
-50,411
-48,784
-46,844
-44,628
-42,186
-39,583
-36,877
-34,118
-31,347
-28,594
-25,882
-23,229
-20,642
-18,117
-15,648
-13,226
-10,843
-8,496
-6,176
-3,87
-1,562
0,772
3,145
5,567
8,045
10,577
13,164
15,801
18,48
21,185
23,904
26,621
29,326
32,008
34,654
37,249
39,781
42,232
44,591
46,844
48,981
50,989
52,86
54,582
56,148
57,552
58,788
59,849
60,727
61,417
61,915
62,214
62,313
62,209
61,9
61,385
60,666
59,745
58,625
57,309
55,803
54,111
52,239
50,196
47,988
45,624
43,114
40,466
37,692
34,803
31,809
28,722
25,554
22,317
19,024
15,686
12,316
8,927
5,529
2,135
-1,245
-4,598
-7,916
-11,188
-14,405
-17,558
-20,64
-23,643
-26,561
-29,387
-32,117
-34,747
-37,272
-39,689
-41,995
-44,189
-46,268
-48,231
-50,077
-51,807
-53,42
-54,916
-56,298
-57,567
-58,724
-59,772
-60,714
-61,552
-62,289
-62,929
-63,475
-63,93
-64,297
-64,581
-64,783
-64,908
-64,959
-64,938
-64,849
-64,695
-64,477
-64,199
-63,863
-63,472
-63,027
-62,532
-61,988
-61,399
-60,767
-60,094
-59,384
-58,64
-57,863
-57,059
-56,228
-55,376
-54,503
-53,615
-52,713
-51,802
-50,883
-49,961
-49,039
-48,119
-47,204
-46,299
-45,404
-44,524
-43,661
-42,818
-41,996
-41,2
-40,431
-39,692
-38,986
-38,313
-37,678
-37,08
-36,523
-36,007
-35,532
-35,1
-34,711
-34,365
-34,06
-33,796
-33,573
-33,388
-33,239
-33,125
-33,043
-32,991
-32,966
-32,964
-32,985
-33,024
-33,08
-33,149
-33,228
-33,315
-33,408
-33,505
-33,602
-33,698
-33,79
-33,876
-33,953
-34,018
-34,068
-34,098
-34,108
-34,092
-34,049
-33,977
-33,873
-33,736
-33,567
-33,365
-33,128
-32,858
-32,551
-32,208
-31,827
-31,409
-30,952
-30,454
-29,914
-29,33
-28,707
-28,043
-27,337
-26,586
-25,784
-24,929
-24,026
-23,079
-22,094
-21,079
-20,045
-19,01
-17,997
-17,028
-16,117
-15,275
-14,507
-13,823
-13,24
-12,766
-12,411
-12,172
-12,033
-11,977
-11,985
-12,026
-12,059
-12,031
-11,873
-11,536
-10,984
-10,188
-9,127
-7,765
-6,065
-4,004
-1,579
1,197
4,291
7,665
11,277
15,062
18,934
22,792
26,518
30,022
33,231
36,084
38,509
40,392
41,623
42,112
41,807
40,706
38,817
36,133
32,654
28,401
23,41
17,769
11,545
4,71
-2,667
-10,415
-18,238
-25,564
-31,798
-36,508
-39,184
-39,306
-36,822
-31,981
-25,444
-18,595
-12,722
-8,796
-8,019
-11,281
-18,325
-28,095
-38,51
-46,326
-48,586
-42,357
-24,277
8,141
55,95
117,29
188,363
265,973
345,612
424,605
499,707
561,025
601,302
614,736
596,349
551,272
486,177
405,237
315,746
224,873
137,704
62,957
8,146
-28,397
-48,663
-56,476
-58,638
-55,15
-46,163
-34,404
-21,086
-9,375
-1,782
1,766
1,747
-0,761
-4,497
-8,292
-10,875
-11,479
-9,872
-6,25
-1,182
4,771
11,152
17,389
22,89
27,319
30,525
32,535
33,546
33,71
33,144
32,019
30,508
28,761
26,918
25,094
23,374
21,865
20,656
19,804
19,351
19,311
19,679
20,445
21,58
23,043
24,794
26,788
28,985
31,345
33,82
36,356
38,901
41,405
43,832
46,157
48,362
50,441
52,392
54,218
55,932
57,548
59,079
60,532
61,916
63,238
64,507
65,735
66,931
68,107
69,27
70,428
71,586
72,749
73,92
75,099
76,286
77,48
78,681
79,889
81,103
82,325
83,553
84,785
86,019
87,253
88,482
89,702
90,905
92,085
93,235
94,346
95,411
96,419
97,361
98,228
99,011
99,698
100,28
100,746
101,087
101,292
101,353
101,26
101,005
100,581
99,98
99,198
98,228
97,068
95,714
94,164
92,417
90,473
88,335
86,003
83,482
80,776
77,892
74,835
71,613
68,237
64,714
61,057
57,275
53,381
49,386
45,304
41,147
36,929
32,661
28,359
24,035
19,701
15,371
11,056
6,767
2,517
-1,685
-5,83
-9,909
-13,914
-17,838
-21,675
-25,421
-29,071
-32,621
-36,071
-39,418
-42,662
-45,804
-48,845
-51,787
-54,633
-57,387
-60,053
-62,634
-65,137
-67,567
-69,928
-72,227
-74,469
-76,66
-78,807
-80,914
-82,987
-85,032
-87,052
-89,052
-91,036
-93,007
-94,969
-96,923
-98,872
-100,816
-102,756
-104,693
-106,625
-108,552
-110,473
-112,385
-114,286
-116,172
-118,041
-119,889
-121,712
-123,505
-125,265
-126,986
-128,664
-130,294
-131,872
-133,394
-134,856
-136,254
-137,585
-138,845
-140,033
-141,146
-142,182
-143,14
-144,02
-144,821
-145,544
-146,189
-146,757
-147,251
-147,671
-148,019
-148,298
-148,511
-148,66
-148,747
-148,776
-148,75
-148,673
-148,547
-148,375
-148,163
-147,913
-147,629
-147,314
-146,971
-146,605
-146,217
-145,81
-145,386
-144,948
-144,495
-144,031
-143,555
-143,067
-142,568
-142,056
-141,532
-140,993
-140,44
-139,868
-139,278
-138,667
-138,034
-137,378
-136,697
-135,991
-135,258
-134,498
-133,711
-132,895
-132,05
-131,176
-130,271
-129,336
-128,37
-127,371
-126,338
-125,27
-124,167
-123,028
-121,853
-120,641
-119,394
-118,113
-116,799
-115,454
-114,08
-112,678
-111,249
-109,794
-108,315
-106,814
-105,292
-103,75
-102,189
-100,609
-99,014
-97,404
-95,778
-94,134
-92,465
-90,769
-89,049
-87,31
-85,559
-83,805
-82,057
-80,33
-78,645
-77,019
-75,466
-73,991
-72,594
-71,28
-70,058
-68,94
-67,946
-67,08
-66,331
-65,685
-65,127
-64,629
-64,165
-63,685
-63,121
-62,423
-61,56
-60,511
-59,276
-57,837
-56,161
-54,217
-51,969
-49,403
-46,533
-43,367
-39,916
-36,218
-32,315
-28,289
-24,264
-20,325
-16,532
-12,929
-9,551
-6,485
-3,85
-1,762
-0,318
0,42
0,403
-0,453
-2,224
-4,939
-8,593
-13,095
-18,382
-24,522
-31,509
-39,21
-47,387
-55,575
-63,306
-70,217
-75,777
-79,307
-80,455
-79,251
-76,099
-71,895
-67,692
-64,554
-63,803
-66,831
-72,827
-78,911
-82,793
-82,568
-80,325
-80,884
-82,776
-79,19
-58,899
-9,272
72,113
178,023
298,189
421,17
536,977
637,729
711,572
743,207
724,864
655,799
543,064
404,263
255,915
113,637
-4,227
-85,899
-126,918
-130,478
-111,525
-86,827
-66,242
-53,814
-46,483
-38,951
-30,542
-22,727
-17,851
-18,497
-24,092
-32,482
-41,64
-49,105
-53,645
-55,178
-53,71
-49,752
-44,065
-37,305
-30,306
-23,936
-18,627
-14,528
-11,654
-9,819
-8,881
-8,746
-9,236
-10,173
-11,426
-12,883
-14,485
-16,177
-17,865
-19,435
-20,77
-21,782
-22,435
-22,714
-22,614
-22,144
-21,313
-20,143
-18,674
-16,941
-14,979
-12,824
-10,507
-8,07
-5,561
-3,029
-0,522
1,925
4,294
6,576
8,77
10,88
12,911
14,875
16,787
18,661
20,505
22,327
24,134
25,934
27,737
29,553
31,392
33,261
35,166
37,11
39,095
41,123
43,192
45,301
47,448
49,631
51,847
54,097
56,38
58,692
61,033
63,399
65,788
68,195
70,615
73,042
75,469
77,89
80,298
82,684
85,041
87,361
89,635
91,855
94,012
96,097
98,103
100,021
101,843
103,56
105,167
106,655
108,019
109,253
110,35
111,307
112,118
112,78
113,29
113,645
113,842
113,88
113,759
113,477
113,036
112,436
111,68
110,771
109,712
108,507
107,162
105,682
104,073
102,341
100,495
98,541
96,489
94,346
92,121
89,824
87,464
85,05
82,591
80,097
77,579
75,045
72,506
69,97
67,448
64,948
62,481
60,054
57,678
55,359
53,107
50,929
48,831
46,822
44,906
43,09
41,378
39,775
38,285
36,909
35,651
34,511
33,491
32,59
31,808
31,143
30,594
30,158
29,832
29,613
29,496
29,478
29,553
29,717
29,962
30,284
30,675
31,13
31,641
32,201
32,804
33,443
34,11
34,798
35,502
36,213
36,926
37,635
38,334
39,017
39,681
40,321
40,934
41,516
42,066
42,58
43,058
43,499
43,901
44,265
44,59
44,876
45,124
45,334
45,509
45,649
45,755
45,83
45,876
45,895
45,888
45,858
45,808
45,738
45,653
45,553
45,441
45,319
45,189
45,053
44,911
44,765
44,614
44,458
44,297
44,13
43,954
43,767
43,568
43,353
43,12
42,867
42,592
42,29
41,961
41,602
41,21
40,783
40,319
39,815
39,269
38,679
38,044
37,362
36,632
35,853
35,024
34,144
33,213
32,229
31,193
30,104
28,963
27,772
26,533
25,247
23,92
22,555
21,157
19,734
18,291
16,835
15,371
13,906
12,446
10,997
9,561
8,145
6,752
5,389
4,061
2,777
1,541
0,362
-0,755
-1,803
-2,776
-3,67
-4,482
-5,212
-5,856
-6,411
-6,874
-7,239
-7,503
-7,669
-7,741
-7,723
-7,63
-7,475
-7,282
-7,075
-6,871
-6,682
-6,513
-6,361
-6,228
-6,112
-6,006
-5,916
-5,841
-5,777
-5,724
-5,676
-5,615
-5,521
-5,363
-5,1
-4,717
-4,209
-3,58
-2,856
-2,057
-1,209
-0,347
0,51
1,351
2,157
2,925
3,645
4,293
4,849
5,286
5,564
5,669
5,597
5,351
4,954
4,412
3,722
2,88
1,874
0,689
-0,688
-2,303
-4,213
-6,469
-9,132
-12,232
-15,809
-19,993
-24,841
-30,287
-36,145
-41,997
-47,384
-51,978
-55,373
-57,047
-56,764
-54,639
-51,242
-47,845
-45,724
-45,759
-48,869
-55,869
-66,873
-81,156
-96,862
-110,836
-119,866
-120,99
-110,965
-86,83
-46,543
9,045
76,063
150,078
227,26
307,624
392,803
478,809
556,709
612,048
629,232
601,662
530,847
426,643
304,013
177,892
64,459
-24,847
-84,098
-114,24
-126,253
-130,506
-133,172
-135,776
-133,235
-122,564
-105,736
-86,774
-70,89
-60,814
-56,252
-56,056
-58,775
-63,234
-68,19
-72,166
-74,279
-74,284
-72,447
-69,393
-65,644
-61,61
-57,841
-54,905
-53,12
-52,578
-53,159
-54,607
-56,722
-59,351
-62,319
-65,451
-68,597
-71,63
-74,452
-76,992
-79,188
-80,985
-82,354
-83,278
-83,755
-83,797
-83,433
-82,7
-81,64
-80,296
-78,702
-76,896
-74,919
-72,82
-70,647
-68,451
-66,265
-64,114
-62,015
-59,981
-58,018
-56,128
-54,303
-52,531
-50,805
-49,119
-47,469
-45,853
-44,264
-42,694
-41,136
-39,582
-38,025
-36,463
-34,889
-33,301
-31,696
-30,074
-28,436
-26,783
-25,115
-23,432
-21,731
-20,011
-18,272
-16,513
-14,732
-12,929
-11,103
-9,256
-7,39
-5,506
-3,608
-1,698
0,22
2,142
4,062
5,974
7,873
9,75
11,599
13,41
15,173
16,881
18,522
20,086
21,564
22,946
24,221
25,381
26,417
27,319
28,08
28,692
29,148
29,44
29,562
29,509
29,277
28,859
28,254
27,459
26,472
25,292
23,921
22,358
20,608
18,672
16,556
14,264
11,804
9,183
6,409
3,493
0,444
-2,725
-6,002
-9,375
-12,83
-16,354
-19,932
-23,552
-27,198
-30,858
-34,517
-38,161
-41,777
-45,351
-48,872
-52,326
-55,702
-58,987
-62,173
-65,248
-68,203
-71,031
-73,724
-76,275
-78,678
-80,93
-83,025
-84,961
-86,737
-88,353
-89,808
-91,104
-92,245
-93,233
-94,074
-94,773
-95,335
-95,767
-96,076
-96,27
-96,357
-96,343
-96,239
-96,052
-95,79
-95,464
-95,08
-94,648
-94,176
-93,673
-93,144
-92,598
-92,042
-91,481
-90,922
-90,369
-89,828
-89,303
-88,797
-88,313
-87,852
-87,417
-87,009
-86,626
-86,268
-85,934
-85,622
-85,33
-85,056
-84,797
-84,55
-84,312
-84,081
-83,853
-83,625
-83,393
-83,156
-82,908
-82,648
-82,372
-82,078
-81,763
-81,425
-81,061
-80,672
-80,254
-79,808
-79,333
-78,829
-78,297
-77,737
-77,153
-76,544
-75,915
-75,267
-74,606
-73,934
-73,256
-72,576
-71,897
-71,224
-70,56
-69,908
-69,273
-68,654
-68,054
-67,476
-66,92
-66,388
-65,881
-65,401
-64,948
-64,526
-64,135
-63,776
-63,448
-63,151
-62,883
-62,64
-62,419
-62,216
-62,025
-61,84
-61,656
-61,468
-61,271
-61,059
-60,823
-60,551
-60,236
-59,875
-59,465
-59,008
-58,509
-57,976
-57,42
-56,861
-56,318
-55,803
-55,328
-54,898
-54,514
-54,176
-53,886
-53,647
-53,455
-53,294
-53,144
-52,981
-52,771
-52,481
-52,063
-51,461
-50,628
-49,53
-48,143
-46,459
-44,482
-42,225
-39,713
-36,967
-34,022
-30,915
-27,695
-24,426
-21,176
-18,017
-15,029
-12,3
-9,905
-7,898
-6,322
-5,202
-4,542
-4,326
-4,527
-5,118
-6,084
-7,439
-9,18
-11,278
-13,695
-16,366
-19,238
-22,29
-25,497
-28,866
-32,407
-36,091
-39,966
-44,182
-48,76
-53,604
-58,436
-62,661
-65,757
-67,432
-67,285
-64,932
-60,415
-54,004
-46,577
-39,811
-35,117
-33,532
-36,079
-43,161
-54,185
-67,966
-82,059
-92,811
-96,774
-90,457
-70,475
-34,484
16,884
80,31
151,74
225,445
299,945
377,56
454,283
525,061
579,614
598,995
575,657
506,766
393,392
255,14
109,355
-24,659
-122,034
-177,948
-193,444
-176,289
-146,566
-111,415
-76,749
-49,785
-29,298
-21,561
-28,206
-41,352
-57,001
-67,544
-69,379
-67,66
-64,519
-61,915
-60,858
-58,489
-53,941
-47,998
-41,161
-34,607
-29,162
-24,746
-21,334
-19,004
-17,575
-16,874
-16,794
-17,145
-17,774
-18,614
-19,539
-20,387
-21,049
-21,416
-21,417
-21,045
-20,285
-19,135
-17,608
-15,712
-13,482
-10,978
-8,247
-5,337
-2,301
0,814
3,923
6,918
9,72
12,273
14,565
16,636
18,508
20,198
21,729
23,121
24,407
25,631
26,82
27,987
29,153
30,344
31,605
33,005
34,587
36,366
38,338
40,469
42,736
45,132
47,644
50,254
52,949
55,712
58,54
61,446
64,431
67,487
70,599
73,738
76,886
80,039
83,197
86,37
89,56
92,765
95,983
99,216
102,46
105,709
108,948
112,156
115,314
118,41
121,432
124,37
127,215
129,953
132,569
135,05
137,383
139,555
141,553
143,363
144,973
146,373
147,555
148,515
149,249
149,75
150,016
150,044
149,832
149,378
148,684
147,748
146,572
145,161
143,518
141,649
139,562
137,264
134,764
132,072
129,198
126,153
122,949
119,597
116,111
112,502
108,785
104,971
101,076
97,112
93,094
89,035
84,948
80,849
76,75
72,664
68,604
64,583
60,613
56,705
52,87
49,119
45,463
41,909
38,468
35,146
31,952
28,891
25,968
23,189
20,557
18,074
15,743
13,564
11,539
9,666
7,946
6,377
4,956
3,68
2,547
1,552
0,69
-0,043
-0,652
-1,144
-1,524
-1,799
-1,975
-2,059
-2,059
-1,98
-1,83
-1,616
-1,345
-1,024
-0,66
-0,26
0,171
0,625
1,096
1,579
2,069
2,56
3,047
3,527
3,995
4,449
4,884
5,298
5,689
6,055
6,394
6,705
6,987
7,239
7,46
7,65
7,809
7,937
8,033
8,098
8,131
8,134
8,106
8,048
7,96
7,845
7,703
7,537
7,349
7,141
6,916
6,676
6,423
6,16
5,888
5,608
5,321
5,029
4,735
4,441
4,15
3,865
3,588
3,323
3,073
2,842
2,632
2,445
2,283
2,15
2,053
2,003
2,006
2,063
2,173
2,33
2,529
2,76
3,009
3,253
3,472
3,65
3,776
3,852
3,872
3,827
3,702
3,476
3,142
2,714
2,204
1,634
1,034
0,443
-0,083
-0,46
-0,624
-0,529
-0,145
0,53
1,509
2,816
4,483
6,537
8,986
11,807
14,968
18,433
22,141
26,012
29,936
33,758
37,35
40,621
43,508
45,973
47,97
49,413
50,182
50,172
49,302
47,527
44,845
41,227
36,662
31,194
24,907
17,925
10,38
2,27
-6,511
-15,904
-25,758
-35,783
-45,406
-54,112
-61,493
-66,881
-69,621
-69,65
-67,075
-62,421
-57,115
-52,559
-50,05
-51,331
-56,526
-63,315
-69,696
-74,437
-78,855
-86,706
-98,018
-105,295
-94,952
-55,45
17,611
117,304
227,88
339,993
448,548
548,683
637,323
700,747
720,53
689,15
604,497
474,327
320,14
159,708
12,422
-99,422
-169,217
-196,911
-190,923
-171,977
-151,499
-134,321
-121,462
-106,349
-87,93
-69,423
-53,35
-43,707
-41,48
-44,531
-50,841
-57,948
-63,552
-66,743
-67,219
-65,018
-60,744
-55,125
-48,815
-42,601
-37,284
-33,256
-30,628
-29,35
-29,163
-29,847
-31,252
-33,169
-35,387
-37,75
-40,13
-42,425
-44,574
-46,487
-48,084
-49,312
-50,138
-50,558
-50,583
-50,236
-49,548
-48,557
-47,302
-45,82
-44,147
-42,321
-40,386
-38,389
-36,378
-34,397
-32,478
-30,644
-28,91
-27,279
-25,747
-24,307
-22,941
-21,635
-20,375
-19,15
-17,952
-16,771
-15,596
-14,415
-13,218
-11,993
-10,732
-9,427
-8,07
-6,658
-5,187
-3,656
-2,066
-0,416
1,293
3,061
4,89
6,778
8,725
10,73
12,791
14,904
17,066
19,272
21,516
23,79
26,087
28,398
30,715
33,027
35,324
37,596
39,832
42,02
44,15
46,21
48,188
50,073
51,855
53,522
55,064
56,471
57,735
58,847
59,798
60,583
61,195
61,628
61,878
61,94
61,812
61,49
60,975
60,264
59,359
58,261
56,972
55,496
53,837
52,001
49,994
47,822
45,494
43,017
40,402
37,656
34,791
31,816
28,742
25,579
22,338
19,03
15,664
12,253
8,805
5,331
1,842
-1,655
-5,148
-8,629
-12,09
-15,52
-18,913
-22,261
-25,555
-28,788
-31,954
-35,045
-38,057
-40,983
-43,818
-46,558
-49,198
-51,736
-54,169
-56,493
-58,709
-60,813
-62,806
-64,687
-66,455
-68,11
-69,653
-71,084
-72,405
-73,615
-74,717
-75,712
-76,602
-77,388
-78,072
-78,658
-79,147
-79,542
-79,845
-80,059
-80,189
-80,236
-80,204
-80,097
-79,919
-79,674
-79,366
-78,999
-78,577
-78,104
-77,584
-77,022
-76,421
-75,785
-75,118
-74,425
-73,709
-72,974
-72,226
-71,467
-70,701
-69,934
-69,167
-68,406
-67,654
-66,913
-66,187
-65,481
-64,796
-64,137
-63,508
-62,91
-62,348
-61,825
-61,342
-60,903
-60,509
-60,163
-59,865
-59,617
-59,419
-59,272
-59,174
-59,125
-59,124
-59,169
-59,26
-59,393
-59,568
-59,783
-60,037
-60,327
-60,65
-61,002
-61,379
-61,776
-62,189
-62,612
-63,04
-63,467
-63,885
-64,291
-64,68
-65,044
-65,374
-65,656
-65,881
-66,046
-66,147
-66,186
-66,17
-66,104
-66,003
-65,888
-65,781
-65,699
-65,655
-65,651
-65,696
-65,798
-65,971
-66,237
-66,603
-67,061
-67,597
-68,191
-68,809
-69,411
-69,936
-70,3
-70,433
-70,278
-69,796
-68,979
-67,811
-66,275
-64,352
-62,016
-59,264
-56,123
-52,629
-48,83
-44,801
-40,629
-36,44
-32,398
-28,636
-25,263
-22,358
-19,958
-18,108
-16,859
-16,265
-16,41
-17,355
-19,13
-21,75
-25,19
-29,398
-34,33
-39,908
-46,024
-52,605
-59,568
-66,886
-74,672
-82,914
-91,459
-99,991
-107,889
-114,538
-119,53
-122,406
-122,64
-120,12
-115,134
-108,509
-101,965
-97,149
-95,176
-97,166
-103,924
-115,289
-130,197
-146,399
-160,09
-167,462
-165,194
-149,508
-117,256
-66,849
0,391
79,882
165,95
253,691
342,527
433,113
520,683
596,452
646,036
654,107
616,655
537,695
427,083
301,461
173,659
56,037
-37,413
-100,666
-130,529
-132,287
-118,896
-98,187
-79,962
-67,734
-59,857
-59,936
-64,558
-71,194
-80,006
-86,615
-92,242
-98,612
-104,506
-110,318
-114,399
-115,04
-112,595
-107,467
-100,411
-92,328
-83,734
-75,147
-67,005
-59,533
-52,787
-46,683
-41,19
-36,301
-31,996
-28,277
-25,108
-22,467
-20,389
-18,892
-17,959
-17,545
-17,575
-17,967
-18,649
-19,562
-20,656
-21,89
-23,214
-24,578
-25,929
-27,192
-28,316
-29,254
-29,95
-30,369
-30,491
-30,299
-29,802
-29,018
-27,964
-26,661
-25,127
-23,371
-21,416
-19,29
-17,028
-14,68
-12,286
-9,876
-7,485
-5,137
-2,848
-0,633
1,504
3,574
5,581
7,534
9,441
11,306
13,138
14,949
16,755
18,576
20,427
22,315
24,249
26,231
28,261
30,339
32,458
34,604
36,767
38,936
41,101
43,251
45,376
47,462
49,494
51,46
53,346
55,14
56,831
58,408
59,862
61,184
62,368
63,406
64,295
65,027
65,598
66,003
66,237
66,299
66,186
65,896
65,43
64,788
63,972
62,985
61,831
60,513
59,035
57,405
55,626
53,707
51,656
49,479
47,187
44,788
42,292
39,709
37,048
34,321
31,537
28,706
25,837
22,942
20,029
17,108
14,188
11,277
8,385
5,518
2,684
-0,11
-2,859
-5,556
-8,198
-10,778
-13,293
-15,739
-18,112
-20,41
-22,629
-24,767
-26,821
-28,791
-30,673
-32,468
-34,174
-35,792
-37,319
-38,757
-40,106
-41,365
-42,536
-43,619
-44,615
-45,525
-46,35
-47,093
-47,753
-48,334
-48,837
-49,263
-49,614
-49,893
-50,1
-50,237
-50,307
-50,312
-50,252
-50,132
-49,954
-49,719
-49,432
-49,095
-48,712
-48,285
-47,82
-47,318
-46,784
-46,221
-45,634
-45,027
-44,403
-43,769
-43,126
-42,482
-41,839
-41,202
-40,575
-39,961
-39,365
-38,79
-38,238
-37,713
-37,217
-36,752
-36,321
-35,924
-35,565
-35,244
-34,961
-34,719
-34,516
-34,353
-34,229
-34,143
-34,093
-34,078
-34,096
-34,145
-34,222
-34,324
-34,448
-34,59
-34,746
-34,91
-35,078
-35,243
-35,398
-35,537
-35,654
-35,743
-35,8
-35,818
-35,795
-35,726
-35,609
-35,441
-35,218
-34,937
-34,594
-34,186
-33,711
-33,165
-32,546
-31,851
-31,08
-30,234
-29,315
-28,323
-27,258
-26,12
-24,91
-23,635
-22,303
-20,923
-19,506
-18,066
-16,622
-15,196
-13,812
-12,49
-11,248
-10,101
-9,06
-8,136
-7,336
-6,668
-6,128
-5,704
-5,376
-5,127
-4,934
-4,774
-4,615
-4,417
-4,14
-3,751
-3,209
-2,477
-1,522
-0,32
1,146
2,882
4,876
7,102
9,517
12,078
14,736
17,443
20,149
22,788
25,297
27,603
29,601
31,174
32,212
32,622
32,343
31,326
29,515
26,876
23,394
19,058
13,912
7,95
1,084
-6,629
-15,012
-23,742
-32,216
-39,822
-46,128
-50,587
-52,633
-52,172
-49,419
-45,098
-40,664
-37,421
-36,322
-38,355
-44,079
-53,006
-63,869
-74,373
-81,186
-80,91
-70,245
-46,274
-6,86
47,37
112,845
186,82
266,307
348,908
434,621
516,505
582,232
622,167
626,943
595,408
536,691
457,928
364,803
265,424
166,615
77,196
9,945
-31,568
-52,953
-60,768
-64,909
-69,466
-70,599
-67,009
-58,776
-47,969
-39,342
-34,917
-34,398
-37,025
-41,363
-46,332
-51,02
-54,241
-55,291
-54,052
-50,844
-46,276
-40,896
-35,163
-29,603
-24,765
-20,988
-18,394
-16,924
-16,396
-16,663
-17,605
-19,079
-20,922
-22,988
-25,161
-27,339
-29,441
-31,374
-33,03
-34,337
-35,247
-35,736
-35,805
-35,464
-34,732
-33,64
-32,234
-30,555
-28,645
-26,546
-24,298
-21,946
-19,539
-17,121
-14,736
-12,414
-10,175
-8,029
-5,979
-4,023
-2,153
-0,36
1,371
3,05
4,687
6,288
7,861
9,413
10,953
12,491
14,034
15,59
17,163
18,757
20,376
22,02
23,691
25,389
27,11
28,857
30,627
32,422
34,24
36,082
37,946
39,829
41,73
43,643
45,565
47,491
49,413
51,326
53,222
55,095
56,936
58,739
60,496
62,198
63,839
65,41
66,903
68,311
69,625
70,84
71,947
72,94
73,813
74,559
75,174
75,652
75,99
76,183
76,23
76,127
75,874
75,468
74,911
74,203
73,344
72,338
71,187
69,896
68,468
66,908
65,223
63,419
61,501
59,478
57,355
55,141
52,843
50,468
48,025
45,521
42,965
40,364
37,728
35,065
32,383
29,689
26,993
24,302
21,623
18,965
16,333
13,736
11,179
8,669
6,212
3,813
1,478
-0,79
-2,985
-5,104
-7,143
-9,101
-10,974
-12,76
-14,458
-16,066
-17,583
-19,008
-20,34
-21,579
-22,724
-23,778
-24,74
-25,611
-26,393
-27,089
-27,701
-28,231
-28,683
-29,061
-29,367
-29,605
-29,78
-29,896
-29,957
-29,968
-29,934
-29,859
-29,748
-29,606
-29,437
-29,245
-29,035
-28,81
-28,575
-28,333
-28,087
-27,841
-27,599
-27,365
-27,14
-26,929
-26,734
-26,558
-26,403
-26,272
-26,165
-26,085
-26,031
-26,005
-26,006
-26,034
-26,089
-26,17
-26,274
-26,401
-26,548
-26,713
-26,894
-27,089
-27,294
-27,506
-27,725
-27,947
-28,171
-28,395
-28,616
-28,834
-29,046
-29,252
-29,448
-29,634
-29,808
-29,967
-30,111
-30,236
-30,34
-30,42
-30,475
-30,503
-30,501
-30,468
-30,404
-30,308
-30,18
-30,023
-29,836
-29,619
-29,372
-29,096
-28,791
-28,456
-28,093
-27,701
-27,279
-26,826
-26,344
-25,833
-25,293
-24,72
-24,107
-23,451
-22,756
-22,025
-21,267
-20,49
-19,704
-18,925
-18,175
-17,475
-16,841
-16,285
-15,809
-15,42
-15,13
-14,953
-14,907
-14,997
-15,206
-15,519
-15,913
-16,359
-16,827
-17,263
-17,594
-17,76
-17,72
-17,441
-16,911
-16,102
-14,969
-13,474
-11,583
-9,285
-6,603
-3,564
-0,194
3,457
7,331
11,335
15,33
19,208
22,889
26,294
29,352
31,957
33,966
35,258
35,746
35,361
34,051
31,759
28,425
24,021
18,569
12,107
4,639
-3,763
-12,945
-22,636
-32,352
-41,556
-49,796
-56,54
-61,155
-63,34
-63,164
-61,065
-58,169
-55,632
-54,271
-55,11
-59,189
-66,746
-77,123
-88,794
-98,971
-104,528
-102,709
-90,21
-63,395
-21,235
34,294
100,734
173,882
253,169
343,067
441,615
541,852
629,694
683,02
689,48
646,623
559,819
445,402
317,727
190,162
78,687
-6,96
-61,209
-85,654
-92,398
-92,25
-91,509
-91,833
-88,557
-79,377
-66,538
-53,312
-43,939
-40,456
-42
-47,066
-53,915
-60,783
-66,156
-69,125
-69,327
-66,872
-62,353
-56,43
-49,696
-42,869
-36,688
-31,573
-27,702
-25,074
-23,491
-22,801
-22,902
-23,632
-24,816
-26,32
-28,024
-29,836
-31,686
-33,466
-35,051
-36,35
-37,301
-37,875
-38,071
-37,892
-37,355
-36,489
-35,333
-33,93
-32,315
-30,525
-28,595
-26,569
-24,494
-22,422
-20,406
-18,482
-16,676
-15,003
-13,468
-12,066
-10,79
-9,621
-8,539
-7,525
-6,563
-5,641
-4,746
-3,866
-2,987
-2,1
-1,192
-0,251
0,735
1,783
2,901
4,094
5,368
6,722
8,151
9,648
11,196
12,775
14,373
15,983
17,602
19,237
20,892
22,571
24,279
26,015
27,781
29,58
31,406
33,256
35,132
37,049
39,042
41,151
43,398
45,791
48,336
51,015
53,823
56,733
59,69
62,651
65,565
68,383
71,075
73,605
75,919
77,957
79,64
80,88
81,624
81,822
81,429
80,415
78,742
76,41
73,474
69,99
66,013
61,609
56,826
51,73
46,418
40,979
35,507
30,101
24,823
19,745
14,951
10,512
6,508
2,986
-0,069
-2,672
-4,84
-6,605
-7,996
-9,065
-9,904
-10,583
-11,154
-11,672
-12,162
-12,665
-13,237
-13,927
-14,788
-15,856
-17,133
-18,619
-20,318
-22,215
-24,288
-26,498
-28,775
-31,07
-33,356
-35,609
-37,82
-39,972
-42,04
-44,006
-45,853
-47,568
-49,143
-50,572
-51,843
-52,957
-53,922
-54,753
-55,482
-56,126
-56,694
-57,194
-57,627
-57,995
-58,301
-58,545
-58,722
-58,831
-58,872
-58,848
-58,766
-58,627
-58,432
-58,179
-57,865
-57,49
-57,055
-56,561
-56,01
-55,406
-54,753
-54,057
-53,327
-52,569
-51,789
-50,994
-50,187
-49,374
-48,56
-47,749
-46,947
-46,159
-45,388
-44,64
-43,922
-43,238
-42,592
-41,99
-41,434
-40,928
-40,476
-40,079
-39,74
-39,459
-39,238
-39,078
-38,98
-38,943
-38,968
-39,054
-39,202
-39,409
-39,675
-39,998
-40,375
-40,805
-41,285
-41,811
-42,381
-42,992
-43,637
-44,312
-45,012
-45,73
-46,462
-47,201
-47,94
-48,673
-49,395
-50,1
-50,785
-51,442
-52,068
-52,654
-53,198
-53,693
-54,134
-54,515
-54,831
-55,076
-55,247
-55,339
-55,35
-55,275
-55,107
-54,841
-54,472
-54,004
-53,438
-52,782
-52,043
-51,234
-50,37
-49,474
-48,565
-47,658
-46,767
-45,9
-45,07
-44,291
-43,575
-42,934
-42,371
-41,878
-41,439
-41,037
-40,638
-40,211
-39,719
-39,113
-38,36
-37,44
-36,337
-35,049
-33,567
-31,875
-29,968
-27,843
-25,506
-22,989
-20,335
-17,591
-14,834
-12,132
-9,546
-7,157
-5,019
-3,161
-1,614
-0,393
0,478
0,939
0,925
0,378
-0,744
-2,435
-4,68
-7,483
-10,824
-14,699
-19,119
-24,041
-29,478
-35,559
-42,299
-49,583
-57,162
-64,483
-70,962
-76,205
-79,724
-80,94
-79,706
-76,262
-71,284
-66,278
-62,711
-61,564
-63,984
-70,928
-82,28
-96,972
-113,028
-127,02
-135,208
-134,343
-120,606
-90,2
-42,705
19,052
91,991
171,267
256,004
350,827
452,995
553,949
638,713
684,825
680,406
626,56
532,039
412,654
282,559
151,485
31,188
-64,014
-124,838
-148,475
-142,642
-124,972
-108,084
-97,833
-93,527
-88,429
-80,58
-71,773
-64,228
-61,271
-63,197
-67,95
-74,003
-79,516
-82,894
-83,712
-81,825
-77,399
-71,165
-63,859
-56,077
-48,498
-41,765
-36,202
-31,956
-29,044
-27,304
-26,614
-26,896
-28,011
-29,8
-32,112
-34,801
-37,718
-40,723
-43,666
-46,393
-48,794
-50,797
-52,359
-53,46
-54,089
-54,239
-53,901
-53,075
-51,766
-49,989
-47,783
-45,201
-42,32
-39,236
-36,039
-32,809
-29,606
-26,471
-23,426
-20,486
-17,656
-14,934
-12,323
-9,83
-7,463
-5,23
-3,131
-1,158
0,707
2,491
4,218
5,912
7,591
9,268
10,95
12,641
14,342
16,048
17,758
19,473
21,196
22,933
24,687
26,461
28,253
30,063
31,89
33,729
35,577
37,431
39,287
41,144
42,997
44,846
46,686
48,515
50,328
52,116
53,875
55,596
57,271
58,892
60,449
61,935
63,34
64,657
65,878
66,995
67,999
68,884
69,643
70,268
70,754
71,095
71,286
71,324
71,205
70,927
70,487
69,885
69,122
68,197
67,113
65,873
64,481
62,94
61,257
59,436
57,485
55,41
53,221
50,924
48,529
46,044
43,48
40,845
38,151
35,406
32,621
29,805
26,97
24,124
21,277
18,44
15,62
12,828
10,071
7,357
4,695
2,091
-0,449
-2,917
-5,31
-7,621
-9,848
-11,987
-14,035
-15,99
-17,85
-19,615
-21,285
-22,858
-24,335
-25,718
-27,006
-28,202
-29,306
-30,321
-31,249
-32,092
-32,852
-33,532
-34,135
-34,664
-35,122
-35,511
-35,835
-36,097
-36,302
-36,451
-36,548
-36,598
-36,602
-36,565
-36,488
-36,376
-36,23
-36,053
-35,847
-35,615
-35,358
-35,078
-34,777
-34,458
-34,121
-33,769
-33,403
-33,025
-32,637
-32,241
-31,838
-31,43
-31,02
-30,61
-30,202
-29,798
-29,401
-29,014
-28,637
-28,274
-27,925
-27,593
-27,278
-26,982
-26,706
-26,452
-26,221
-26,014
-25,832
-25,675
-25,546
-25,443
-25,368
-25,32
-25,299
-25,306
-25,339
-25,4
-25,487
-25,599
-25,736
-25,896
-26,078
-26,28
-26,499
-26,731
-26,974
-27,223
-27,475
-27,725
-27,968
-28,202
-28,421
-28,623
-28,805
-28,963
-29,093
-29,194
-29,261
-29,29
-29,277
-29,216
-29,101
-28,93
-28,7
-28,408
-28,053
-27,632
-27,146
-26,595
-25,98
-25,301
-24,555
-23,735
-22,842
-21,882
-20,865
-19,806
-18,719
-17,614
-16,505
-15,412
-14,345
-13,311
-12,306
-11,315
-10,334
-9,364
-8,414
-7,503
-6,638
-5,814
-5,017
-4,234
-3,448
-2,65
-1,822
-0,93
0,036
1,067
2,133
3,178
4,168
5,091
5,95
6,758
7,517
8,215
8,838
9,383
9,836
10,195
10,444
10,546
10,498
10,324
10,075
9,826
9,603
9,398
9,18
8,915
8,596
8,214
7,725
7,066
6,176
4,987
3,478
1,61
-0,776
-3,762
-7,324
-11,33
-15,379
-19,028
-21,978
-23,85
-24,123
-22,606
-19,483
-15,299
-11,36
-9,016
-9,143
-12,718
-20,702
-33,197
-49,345
-67,48
-84,571
-97,027
-101,771
-95,387
-74,077
-36,643
14,734
77,351
147,001
221,479
304,931
398,248
495,226
585,138
648,223
664,784
628,901
541,775
412,658
263,155
111,298
-23,962
-120,727
-173,356
-184,518
-165,62
-139,005
-116,595
-101,987
-93,574
-83,191
-68,961
-53,668
-40,014
-31,813
-29,644
-31,372
-35,402
-39,836
-42,957
-44,241
-43,474
-40,741
-36,65
-31,813
-26,701
-21,891
-17,981
-15,255
-13,802
-13,553
-14,245
-15,655
-17,622
-19,951
-22,438
-24,917
-27,249
-29,315
-31,069
-32,471
-33,478
-34,071
-34,235
-33,973
-33,312
-32,296
-30,964
-29,355
-27,513
-25,472
-23,28
-20,989
-18,651
-16,315
-14,02
-11,79
-9,642
-7,59
-5,643
-3,801
-2,057
-0,398
1,189
2,711
4,175
5,586
6,953
8,287
9,598
10,897
12,192
13,488
14,794
16,115
17,457
18,824
20,219
21,642
23,098
24,59
26,122
27,699
29,322
30,994
32,718
34,495
36,324
38,207
40,139
42,119
44,144
46,209
48,309
50,439
52,592
54,76
56,936
59,111
61,275
63,418
65,53
67,6
69,617
71,568
73,443
75,228
76,913
78,485
79,932
81,243
82,408
83,414
84,253
84,916
85,393
85,677
85,762
85,641
85,309
84,763
84,001
83,021
81,823
80,408
78,779
76,938
74,891
72,643
70,201
67,573
64,767
61,792
58,66
55,381
51,966
48,429
44,782
41,039
37,213
33,318
29,368
25,379
21,363
17,336
13,312
9,305
5,327
1,394
-2,484
-6,292
-10,019
-13,655
-17,187
-20,608
-23,907
-27,077
-30,11
-33,001
-35,744
-38,336
-40,771
-43,049
-45,166
-47,123
-48,919
-50,554
-52,029
-53,348
-54,512
-55,524
-56,388
-57,109
-57,692
-58,141
-58,462
-58,661
-58,745
-58,718
-58,589
-58,365
-58,051
-57,655
-57,185
-56,647
-56,049
-55,397
-54,698
-53,958
-53,183
-52,38
-51,553
-50,708
-49,848
-48,98
-48,106
-47,231
-46,358
-45,49
-44,63
-43,78
-42,944
-42,122
-41,318
-40,532
-39,768
-39,026
-38,308
-37,617
-36,952
-36,316
-35,709
-35,133
-34,589
-34,076
-33,597
-33,15
-32,737
-32,358
-32,014
-31,704
-31,428
-31,188
-30,983
-30,813
-30,679
-30,582
-30,522
-30,498
-30,511
-30,563
-30,652
-30,778
-30,942
-31,142
-31,378
-31,648
-31,951
-32,282
-32,638
-33,017
-33,415
-33,826
-34,248
-34,676
-35,106
-35,534
-35,956
-36,369
-36,766
-37,142
-37,492
-37,811
-38,095
-38,337
-38,533
-38,676
-38,761
-38,787
-38,75
-38,645
-38,464
-38,199
-37,845
-37,405
-36,881
-36,277
-35,601
-34,86
-34,07
-33,252
-32,426
-31,606
-30,8
-30,017
-29,268
-28,571
-27,946
-27,412
-26,972
-26,617
-26,341
-26,132
-25,971
-25,831
-25,662
-25,408
-25,027
-24,492
-23,789
-22,901
-21,795
-20,429
-18,769
-16,792
-14,504
-11,924
-9,067
-5,964
-2,658
0,784
4,252
7,638
10,861
13,856
16,571
18,931
20,806
22,064
22,591
22,298
21,162
19,155
16,217
12,319
7,445
1,61
-5,07
-12,542
-20,872
-29,985
-39,695
-49,632
-59,082
-67,395
-74,137
-78,739
-80,648
-79,784
-76,327
-71,091
-65,709
-61,537
-59,586
-60,979
-66,357
-75,326
-86,768
-98,261
-106,189
-107,204
-98,023
-75,175
-35,759
19,945
88,526
165,774
245,825
327,962
416,613
508,999
599,346
674,462
710,277
695,372
626,34
506,583
359,672
206,339
66,548
-35,943
-96,475
-117,854
-109,449
-92,264
-77,068
-67,392
-63,311
-57,775
-49,075
-39,895
-32,498
-30,492
-34,666
-42,94
-53,373
-63,722
-72,021
-77,541
-80,065
-79,634
-76,765
-72,084
-66,162
-59,721
-53,524
-47,981
-43,265
-39,406
-36,252
-33,695
-31,705
-30,202
-29,09
-28,297
-27,753
-27,422
-27,315
-27,419
-27,719
-28,182
-28,742
-29,36
-30,013
-30,685
-31,366
-32,028
-32,623
-33,097
-33,419
-33,579
-33,585
-33,442
-33,139
-32,659
-31,978
-31,091
-30,01
-28,742
-27,287
-25,641
-23,807
-21,807
-19,683
-17,487
-15,248
-12,984
-10,703
-8,412
-6,124
-3,859
-1,631
0,556
2,703
4,809
6,869
8,878
10,839
12,765
14,679
16,607
18,564
20,56
22,599
24,685
26,821
29,01
31,249
33,529
35,844
38,188
40,558
42,948
45,352
47,758
50,153
52,523
54,855
57,138
59,361
61,512
63,58
65,557
67,435
69,208
70,867
72,405
73,815
75,086
76,213
77,187
78,003
78,653
79,133
79,438
79,566
79,513
79,28
78,865
78,269
77,494
76,541
75,413
74,115
72,65
71,025
69,247
67,322
65,259
63,067
60,754
58,33
55,805
53,19
50,494
47,728
44,903
42,027
39,113
36,171
33,21
30,242
27,277
24,324
21,394
18,494
15,633
12,819
10,059
7,36
4,728
2,167
-0,316
-2,718
-5,035
-7,264
-9,401
-11,446
-13,396
-15,252
-17,012
-18,678
-20,251
-21,731
-23,12
-24,421
-25,635
-26,765
-27,814
-28,786
-29,683
-30,509
-31,268
-31,963
-32,599
-33,18
-33,708
-34,188
-34,622
-35,014
-35,368
-35,684
-35,967
-36,219
-36,442
-36,639
-36,812
-36,962
-37,092
-37,202
-37,294
-37,37
-37,429
-37,473
-37,502
-37,516
-37,517
-37,504
-37,478
-37,439
-37,387
-37,321
-37,241
-37,147
-37,039
-36,916
-36,778
-36,624
-36,455
-36,272
-36,074
-35,862
-35,636
-35,398
-35,149
-34,89
-34,621
-34,343
-34,059
-33,77
-33,477
-33,181
-32,886
-32,592
-32,301
-32,016
-31,738
-31,47
-31,212
-30,966
-30,735
-30,521
-30,326
-30,152
-30,001
-29,875
-29,777
-29,708
-29,671
-29,665
-29,693
-29,754
-29,849
-29,977
-30,138
-30,33
-30,551
-30,801
-31,078
-31,379
-31,701
-32,044
-32,406
-32,782
-33,172
-33,57
-33,973
-34,375
-34,773
-35,163
-35,54
-35,899
-36,234
-36,542
-36,818
-37,058
-37,256
-37,404
-37,492
-37,512
-37,464
-37,35
-37,173
-36,941
-36,66
-36,342
-36,007
-35,668
-35,338
-35,023
-34,721
-34,439
-34,186
-33,978
-33,835
-33,766
-33,763
-33,816
-33,911
-34,02
-34,116
-34,156
-34,077
-33,835
-33,405
-32,77
-31,935
-30,893
-29,621
-28,09
-26,27
-24,144
-21,723
-19,027
-16,071
-12,904
-9,582
-6,181
-2,818
0,419
3,475
6,308
8,892
11,176
13,074
14,48
15,307
15,487
14,968
13,7
11,607
8,647
4,801
0,095
-5,415
-11,777
-19,004
-26,994
-35,516
-44,116
-52,268
-59,546
-65,51
-69,586
-71,429
-71,084
-69,027
-66,438
-64,623
-64,491
-66,903
-72,731
-82,259
-94,897
-108,999
-121,578
-129,336
-129,367
-118,734
-94,493
-54,129
2,009
70,432
146,909
226,134
307,282
394,261
484,479
572,295
645,777
683,336
674,519
616,236
511,365
379,809
238,876
105,828
1,782
-67,258
-100,874
-105,641
-99,745
-93,062
-89,43
-89,07
-84,833
-74,923
-62,565
-50,6
-43,135
-41,599
-44,371
-49,919
-56,726
-63,143
-67,964
-70,568
-70,699
-68,624
-65,038
-60,571
-55,729
-51,12
-47,297
-44,536
-42,956
-42,489
-42,909
-44,049
-45,771
-47,906
-50,296
-52,811
-55,333
-57,764
-60,025
-62,015
-63,649
-64,878
-65,669
-66,017
-65,929
-65,42
-64,52
-63,268
-61,708
-59,88
-57,822
-55,57
-53,171
-50,675
-48,134
-45,601
-43,114
-40,699
-38,375
-36,151
-34,032
-32,015
-30,092
-28,249
-26,478
-24,77
-23,12
-21,523
-19,972
-18,457
-16,967
-15,494
-14,027
-12,56
-11,087
-9,6
-8,095
-6,57
-5,022
-3,452
-1,856
-0,232
1,421
3,107
4,828
6,584
8,377
10,208
12,076
13,98
15,916
17,881
19,87
21,879
23,902
25,931
27,961
29,983
31,99
33,972
35,921
37,827
39,68
41,47
43,186
44,818
46,356
47,79
49,109
50,304
51,367
52,289
53,064
53,683
54,141
54,433
54,553
54,498
54,265
53,851
53,256
52,479
51,522
50,387
49,078
47,599
45,955
44,152
42,198
40,1
37,866
35,505
33,028
30,444
27,765
25,001
22,164
19,267
16,321
13,338
10,33
7,31
4,287
1,274
-1,718
-4,68
-7,602
-10,473
-13,285
-16,029
-18,698
-21,284
-23,782
-26,185
-28,489
-30,69
-32,786
-34,774
-36,652
-38,421
-40,08
-41,629
-43,07
-44,405
-45,636
-46,766
-47,799
-48,739
-49,591
-50,358
-51,046
-51,66
-52,205
-52,686
-53,109
-53,477
-53,796
-54,071
-54,307
-54,507
-54,677
-54,821
-54,942
-55,043
-55,128
-55,2
-55,26
-55,309
-55,35
-55,383
-55,408
-55,426
-55,436
-55,438
-55,432
-55,416
-55,389
-55,351
-55,298
-55,231
-55,146
-55,042
-54,919
-54,774
-54,606
-54,414
-54,197
-53,954
-53,686
-53,39
-53,067
-52,717
-52,34
-51,936
-51,506
-51,05
-50,57
-50,067
-49,544
-49,001
-48,442
-47,869
-47,286
-46,697
-46,104
-45,512
-44,925
-44,346
-43,781
-43,233
-42,706
-42,204
-41,731
-41,291
-40,886
-40,52
-40,196
-39,916
-39,682
-39,496
-39,36
-39,275
-39,242
-39,263
-39,336
-39,463
-39,644
-39,876
-40,16
-40,495
-40,879
-41,308
-41,782
-42,295
-42,844
-43,423
-44,026
-44,647
-45,28
-45,918
-46,554
-47,183
-47,797
-48,393
-48,963
-49,503
-50,006
-50,466
-50,876
-51,231
-51,524
-51,749
-51,901
-51,973
-51,96
-51,861
-51,673
-51,393
-51,019
-50,546
-49,971
-49,3
-48,537
-47,688
-46,761
-45,767
-44,719
-43,637
-42,541
-41,447
-40,374
-39,332
-38,335
-37,39
-36,51
-35,705
-34,973
-34,301
-33,673
-33,068
-32,472
-31,87
-31,236
-30,537
-29,741
-28,825
-27,763
-26,535
-25,114
-23,478
-21,613
-19,511
-17,192
-14,69
-12,053
-9,332
-6,565
-3,792
-1,061
1,565
4,034
6,292
8,27
9,889
11,044
11,644
11,628
10,947
9,567
7,465
4,624
1,033
-3,291
-8,364
-14,262
-20,959
-28,334
-36,136
-43,857
-50,947
-56,964
-61,403
-63,712
-63,694
-61,477
-57,625
-53,47
-50,388
-49,357
-51,376
-57,21
-66,792
-79,325
-93,034
-104,672
-110,703
-108,154
-94,052
-65,699
-21,822
37,392
110,479
192,365
276,974
360,119
435,636
500,251
551,96
583,85
593,364
576,103
527,026
451,35
352,047
239,018
129,892
34,135
-36,364
-77,898
-99,612
-107,29
-108,657
-107,917
-101,502
-89,016
-71,993
-53,237
-37,544
-27,126
-21,914
-21,142
-23,34
-27,29
-31,727
-35,128
-36,645
-36,046
-33,574
-29,842
-25,364
-20,551
-15,951
-12,147
-9,47
-8,023
-7,703
-8,261
-9,511
-11,317
-13,519
-15,951
-18,458
-20,903
-23,187
-25,235
-26,984
-28,381
-29,389
-29,987
-30,172
-29,958
-29,375
-28,46
-27,253
-25,789
-24,102
-22,224
-20,197
-18,068
-15,884
-13,693
-11,528
-9,41
-7,358
-5,381
-3,482
-1,657
0,103
1,816
3,493
5,142
6,772
8,387
9,996
11,61
13,237
14,887
16,567
18,283
20,039
21,839
23,686
25,579
27,518
29,499
31,521
33,585
35,688
37,831
40,013
42,231
44,484
46,771
49,087
51,431
53,796
56,178
58,571
60,969
63,365
65,752
68,121
70,465
72,773
75,038
77,25
79,398
81,474
83,466
85,365
87,161
88,844
90,406
91,838
93,131
94,278
95,271
96,105
96,772
97,269
97,591
97,733
97,693
97,467
97,055
96,455
95,666
94,689
93,525
92,177
90,647
88,939
87,059
85,011
82,803
80,442
77,935
75,292
72,523
69,637
66,646
63,561
60,392
57,153
53,855
50,51
47,132
43,73
40,319
36,91
33,513
30,141
26,804
23,512
20,277
17,107
14,012
11,001
8,082
5,265
2,555
-0,041
-2,516
-4,865
-7,084
-9,169
-11,118
-12,929
-14,6
-16,133
-17,527
-18,784
-19,906
-20,897
-21,759
-22,496
-23,115
-23,62
-24,016
-24,311
-24,508
-24,616
-24,64
-24,587
-24,462
-24,273
-24,024
-23,724
-23,376
-22,989
-22,567
-22,116
-21,642
-21,149
-20,643
-20,127
-19,606
-19,084
-18,562
-18,043
-17,531
-17,026
-16,53
-16,043
-15,567
-15,102
-14,647
-14,202
-13,766
-13,338
-12,917
-12,501
-12,089
-11,681
-11,275
-10,87
-10,464
-10,058
-9,652
-9,243
-8,833
-8,421
-8,007
-7,592
-7,177
-6,764
-6,352
-5,946
-5,545
-5,153
-4,773
-4,408
-4,059
-3,731
-3,425
-3,146
-2,897
-2,681
-2,502
-2,361
-2,263
-2,211
-2,208
-2,258
-2,361
-2,522
-2,741
-3,021
-3,363
-3,767
-4,235
-4,765
-5,358
-6,013
-6,727
-7,498
-8,321
-9,194
-10,112
-11,07
-12,062
-13,084
-14,13
-15,195
-16,274
-17,362
-18,451
-19,535
-20,607
-21,661
-22,69
-23,688
-24,646
-25,558
-26,417
-27,22
-27,961
-28,635
-29,235
-29,749
-30,174
-30,51
-30,758
-30,923
-31,01
-31,028
-30,99
-30,919
-30,836
-30,757
-30,693
-30,65
-30,643
-30,69
-30,811
-31,026
-31,336
-31,734
-32,209
-32,748
-33,331
-33,927
-34,481
-34,927
-35,217
-35,314
-35,194
-34,834
-34,192
-33,22
-31,878
-30,141
-28,015
-25,519
-22,673
-19,511
-16,083
-12,469
-8,793
-5,182
-1,736
1,457
4,327
6,779
8,668
9,85
10,199
9,62
8,079
5,54
1,948
-2,717
-8,456
-15,229
-22,9
-31,386
-40,702
-50,744
-61,313
-72,054
-82,318
-91,494
-99,151
-104,73
-107,667
-107,802
-105,231
-100,581
-95,222
-90,336
-86,812
-85,721
-87,817
-92,929
-100,245
-107,858
-112,702
-111,83
-102,461
-81,467
-45,996
3,808
65,206
135,048
208,252
284,243
367,343
454,682
540,804
613,974
651,903
643,727
585,687
479,597
345,373
200,789
64,201
-41,551
-109,816
-140,557
-141,566
-132,634
-124,327
-120,273
-119,945
-115,414
-104,657
-91,042
-77,672
-68,852
-66,004
-67,456
-71,662
-77,09
-82,08
-85,416
-86,44
-84,877
-81,003
-75,503
-68,992
-61,983
-55,075
-48,829
-43,549
-39,386
-36,316
-34,154
-32,757
-32,001
-31,73
-31,801
-32,112
-32,577
-33,115
-33,675
-34,18
-34,566
-34,825
-34,944
-34,904
-34,683
-34,236
-33,54
-32,609
-31,465
-30,132
-28,629
-26,971
-25,179
-23,297
-21,361
-19,4
-17,422
-15,403
-13,334
-11,221
-9,081
-6,949
-4,847
-2,775
-0,736
1,264
3,221
5,127
6,987
8,821
10,638
12,442
14,228
15,976
17,677
19,336
20,96
22,566
24,166
25,764
27,368
28,987
30,629
32,298
33,994
35,704
37,424
39,151
40,883
42,623
44,366
46,108
47,841
49,558
51,248
52,906
54,52
56,079
57,572
58,991
60,329
61,579
62,736
63,791
64,738
65,57
66,281
66,864
67,312
67,619
67,778
67,785
67,636
67,327
66,854
66,216
65,409
64,435
63,292
61,981
60,504
58,863
57,061
55,103
52,995
50,743
48,353
45,833
43,193
40,44
37,585
34,639
31,61
28,511
25,351
22,142
18,895
15,621
12,331
9,036
5,748
2,477
-0,764
-3,964
-7,112
-10,196
-13,205
-16,126
-18,95
-21,664
-24,261
-26,73
-29,063
-31,253
-33,294
-35,18
-36,908
-38,474
-39,872
-41,102
-42,161
-43,049
-43,769
-44,32
-44,705
-44,927
-44,991
-44,903
-44,67
-44,294
-43,778
-43,125
-42,348
-41,461
-40,48
-39,423
-38,308
-37,16
-36,013
-34,896
-33,84
-32,87
-32,002
-31,254
-30,652
-30,224
-30,001
-30,001
-30,225
-30,666
-31,316
-32,16
-33,176
-34,324
-35,534
-36,738
-37,878
-38,905
-39,78
-40,452
-40,851
-40,905
-40,542
-39,704
-38,363
-36,504
-34,103
-31,153
-27,663
-23,677
-19,288
-14,608
-9,745
-4,813
0,08
4,824
9,303
13,379
16,909
19,759
21,831
23,068
23,41
22,719
20,757
17,402
12,706
6,899
0,45
-6,167
