Nom
Date de naissance
Date d’enregistrement,2022-02-27 15:55:54 +0100
Classification,Rythme sinusal
Symptômes,
Version du logiciel,1.52
Appareil,"Watch5,1"
Fréquence d’échantillonnage,511,242 hertz


Dérivation,Dérivation DI
Unité,µV

-1,442
-0,285
0,926
2,187
3,509
4,903
6,376
7,925
9,547
11,251
13,068
15,048
17,232
19,646
22,294
25,178
28,304
31,669
35,263
39,045
42,945
46,898
50,857
54,785
58,65
62,395
65,926
69,143
71,963
74,327
76,198
77,535
78,28
78,399
77,891
76,803
75,231
73,256
70,94
68,348
65,548
62,641
59,769
57,063
54,62
52,527
50,856
49,693
49,156
49,322
50,232
51,881
54,221
57,214
60,84
65,057
69,808
75,007
80,535
86,298
92,239
98,297
104,417
110,529
116,539
122,381
128,025
133,456
138,685
143,716
148,541
153,173
157,646
162,005
166,313
170,612
174,914
179,231
183,574
187,955
192,397
196,905
201,462
206,042
210,621
215,175
219,686
224,135
228,491
232,721
236,789
240,669
244,351
247,842
251,152
254,291
257,275
260,123
262,865
265,551
268,214
270,885
273,587
276,324
279,091
281,89
284,715
287,554
290,387
293,163
295,81
298,267
300,466
302,337
303,811
304,787
305,175
304,907
303,922
302,193
299,716
296,476
292,464
287,687
282,149
275,898
269,026
261,606
253,721
245,46
236,914
228,21
219,485
210,844
202,376
194,149
186,2
178,589
171,376
164,609
158,342
152,59
147,327
142,541
138,212
134,306
130,784
127,575
124,583
121,743
119,01
116,35
113,75
111,18
108,598
105,973
103,269
100,469
97,578
94,598
91,525
88,379
85,178
81,966
78,807
75,744
72,799
69,991
67,328
64,82
62,49
60,348
58,404
56,664
55,129
53,798
52,675
51,754
51,019
50,45
50,015
49,689
49,461
49,319
49,255
49,262
49,328
49,446
49,61
49,812
50,039
50,28
50,518
50,739
50,933
51,091
51,208
51,275
51,279
51,205
51,04
50,772
50,395
49,9
49,282
48,537
47,668
46,687
45,606
44,436
43,185
41,851
40,427
38,913
37,305
35,605
33,807
31,89
29,83
27,608
25,202
22,594
19,757
16,647
13,223
9,455
5,321
0,824
-4,024
-9,213
-14,73
-20,553
-26,642
-32,933
-39,342
-45,802
-52,245
-58,606
-64,809
-70,751
-76,335
-81,473
-86,094
-90,149
-93,594
-96,387
-98,49
-99,882
-100,57
-100,597
-100,03
-98,925
-97,334
-95,317
-92,947
-90,325
-87,553
-84,732
-81,949
-79,282
-76,816
-74,63
-72,799
-71,39
-70,437
-69,945
-69,901
-70,287
-71,084
-72,265
-73,791
-75,601
-77,632
-79,819
-82,1
-84,431
-86,771
-89,093
-91,373
-93,585
-95,697
-97,71
-99,649
-101,547
-103,447
-105,411
-107,467
-109,689
-112,229
-115,121
-118,301
-121,607
-124,647
-127,028
-128,5
-128,671
-127,051
-123,582
-118,482
-112,278
-106,191
-101,252
-98,09
-97,716
-101,059
-107,983
-117,683
-128,576
-137,789
-142,66
-140,956
-129,588
-105,39
-67,796
-18,822
38,775
100,599
164,957
235,255
311,172
387,261
455,037
498,682
503,316
465,264
384,316
266,348
129,576
-9,954
-133,449
-218,394
-259,788
-262,001
-237,08
-207,413
-184,811
-171,734
-166,496
-161,671
-154,509
-146,936
-141,167
-139,978
-143,513
-149,797
-156,889
-162,734
-166,373
-167,78
-167,029
-164,604
-161,109
-157,046
-153,064
-149,808
-147,578
-146,472
-146,472
-147,379
-149,031
-151,301
-154,003
-156,954
-160,019
-163,076
-166,031
-168,813
-171,333
-173,514
-175,303
-176,667
-177,595
-178,093
-178,171
-177,851
-177,162
-176,135
-174,802
-173,194
-171,341
-169,281
-167,052
-164,694
-162,245
-159,731
-157,169
-154,571
-151,938
-149,267
-146,549
-143,774
-140,927
-137,995
-134,967
-131,827
-128,566
-125,176
-121,651
-117,991
-114,2
-110,281
-106,243
-102,097
-97,854
-93,518
-89,091
-84,564
-79,928
-75,181
-70,329
-65,385
-60,362
-55,263
-50,087
-44,834
-39,49
-34,049
-28,501
-22,82
-16,996
-11,041
-4,978
1,14
7,249
13,303
19,265
25,105
30,801
36,316
41,613
46,66
51,416
55,837
59,875
63,459
66,534
69,078
71,091
72,603
73,67
74,323
74,59
74,5
74,067
73,317
72,275
70,955
69,376
67,567
65,568
63,437
61,229
58,969
56,67
54,324
51,904
49,401
46,809
44,119
41,335
38,461
35,503
32,483
29,421
26,331
23,219
20,083
16,918
13,733
10,545
7,377
4,258
1,215
-1,732
-4,556
-7,238
-9,763
-12,118
-14,299
-16,305
-18,133
-19,777
-21,23
-22,483
-23,534
-24,381
-25,023
-25,463
-25,703
-25,745
-25,596
-25,262
-24,748
-24,057
-23,194
-22,162
-20,965
-19,609
-18,101
-16,445
-14,651
-12,726
-10,678
-8,517
-6,252
-3,892
-1,446
1,076
3,665
6,312
9,006
11,738
14,498
17,277
20,064
22,85
25,625
28,379
31,102
33,787
36,424
39,003
41,518
43,959
46,319
48,592
50,769
52,844
54,811
56,664
58,398
60,007
61,487
62,834
64,044
65,114
66,041
66,823
67,46
67,95
68,294
68,493
68,547
68,459
68,234
67,875
67,387
66,777
66,051
65,215
64,278
63,246
62,128
60,931
59,664
58,335
56,954
55,531
54,077
52,604
51,122
49,642
48,176
46,737
45,334
43,977
42,678
41,446
40,296
39,242
38,297
37,469
36,762
36,177
35,711
35,357
35,104
34,932
34,821
34,755
34,721
34,712
34,723
34,741
34,751
34,735
34,675
34,568
34,419
34,235
34,038
33,855
33,731
33,727
33,905
34,31
34,975
35,912
37,126
38,626
40,423
42,534
44,968
47,715
50,754
54,051
57,556
61,198
64,879
68,472
71,842
74,878
77,496
79,632
81,238
82,264
82,651
82,334
81,249
79,328
76,517
72,786
68,126
62,591
56,252
49,203
41,561
33,399
24,77
15,763
6,397
-3,343
-13,322
-23,323
-32,959
-41,576
-48,606
-53,582
-55,941
-55,376
-52,003
-46,155
-38,833
-31,518
-25,406
-21,746
-21,698
-25,388
-32,098
-40,568
-48,277
-52,036
-48,904
-35,261
-7,498
34,557
88,388
151,588
219,774
292,549
374,372
461,976
549,061
623,918
665,114
662,165
611,941
516,882
395,8
265,053
141,482
44,416
-21,753
-55,301
-62,417
-58,561
-49,925
-43,9
-42,976
-42,935
-46,276
-50,947
-55,286
-60,553
-63,868
-66,803
-71,188
-76,472
-83,203
-89,316
-92,903
-94,018
-92,678
-89,542
-85,381
-80,387
-74,944
-69,664
-64,885
-60,762
-57,309
-54,383
-51,897
-49,837
-48,161
-46,786
-45,648
-44,728
-44,029
-43,583
-43,411
-43,49
-43,778
-44,228
-44,809
-45,512
-46,335
-47,272
-48,314
-49,454
-50,672
-51,952
-53,263
-54,546
-55,75
-56,822
-57,706
-58,371
-58,803
-58,991
-58,931
-58,616
-58,041
-57,206
-56,121
-54,791
-53,231
-51,46
-49,508
-47,427
-45,263
-43,054
-40,84
-38,646
-36,487
-34,381
-32,333
-30,343
-28,409
-26,53
-24,699
-22,916
-21,177
-19,474
-17,798
-16,13
-14,455
-12,767
-11,058
-9,328
-7,576
-5,804
-4,018
-2,232
-0,455
1,302
3,028
4,715
6,354
7,934
9,442
10,869
12,203
13,435
14,558
15,562
16,44
17,185
17,792
18,257
18,577
18,747
18,765
18,627
18,332
17,879
17,267
16,497
15,567
14,481
13,24
11,848
10,306
8,62
6,793
4,831
2,741
0,527
-1,801
-4,239
-6,777
-9,408
-12,123
-14,914
-17,771
-20,686
-23,65
-26,653
-29,685
-32,736
-35,798
-38,86
-41,916
-44,955
-47,971
-50,955
-53,903
-56,806
-59,659
-62,456
-65,193
-67,865
-70,467
-72,995
-75,448
-77,821
-80,113
-82,323
-84,449
-86,491
-88,449
-90,322
-92,113
-93,82
-95,448
-96,997
-98,47
-99,871
-101,202
-102,47
-103,677
-104,828
-105,929
-106,985
-107,999
-108,977
-109,924
-110,844
-111,742
-112,622
-113,488
-114,344
-115,194
-116,041
-116,889
-117,741
-118,599
-119,465
-120,34
-121,227
-122,125
-123,035
-123,958
-124,894
-125,84
-126,798
-127,764
-128,738
-129,716
-130,695
-131,673
-132,645
-133,607
-134,556
-135,486
-136,393
-137,273
-138,119
-138,928
-139,695
-140,414
-141,08
-141,689
-142,236
-142,716
-143,125
-143,459
-143,714
-143,887
-143,976
-143,978
-143,891
-143,713
-143,443
-143,081
-142,626
-142,078
-141,437
-140,704
-139,881
-138,969
-137,969
-136,885
-135,716
-134,465
-133,135
-131,727
-130,245
-128,691
-127,069
-125,382
-123,636
-121,835
-119,984
-118,085
-116,144
-114,161
-112,142
-110,087
-107,998
-105,876
-103,722
-101,537
-99,323
-97,082
-94,813
-92,514
-90,182
-87,814
-85,415
-82,989
-80,542
-78,085
-75,628
-73,191
-70,796
-68,465
-66,212
-64,052
-61,992
-60,042
-58,217
-56,527
-54,981
-53,58
-52,317
-51,177
-50,14
-49,173
-48,231
-47,261
-46,204
-45,008
-43,639
-42,068
-40,277
-38,246
-35,96
-33,412
-30,601
-27,533
-24,231
-20,727
-17,075
-13,35
-9,65
-6,075
-2,723
0,318
2,991
5,249
7,042
8,332
9,081
9,258
8,855
7,857
6,24
4,007
1,186
-2,17
-5,908
-9,895
-14,16
-18,722
-23,641
-28,99
-34,634
-40,483
-46,608
-52,934
-58,992
-64,144
-67,563
-68,514
-66,905
-62,657
-55,72
-46,5
-35,957
-25,727
-17,83
-13,946
-14,948
-21,383
-33,013
-48,552
-65,947
-81,737
-91,682
-91,923
-78,734
-48,706
-1,718
59,506
132,218
211,258
294,805
385,96
480,618
572,152
649,467
692,115
689,929
641,077
547,933
426,023
290,921
156,476
40,701
-42,569
-86,233
-90,078
-63,497
-25,089
7,571
24,054
18,962
-1,183
-24,386
-43,816
-53,517
-54,549
-53,879
-54,254
-57,208
-61,96
-64,797
-64,519
-61,402
-55,829
-48,931
-41,364
-33,346
-25,433
-18,06
-11,387
-5,484
-0,287
4,264
8,16
11,42
14,106
16,297
18,067
19,458
20,491
21,222
21,699
21,99
22,178
22,305
22,402
22,497
22,599
22,714
22,862
23,058
23,324
23,704
24,212
24,861
25,664
26,627
27,771
29,109
30,633
32,338
34,225
36,292
38,546
40,994
43,62
46,408
49,33
52,342
55,42
58,541
61,682
64,826
67,95
71,034
74,074
77,071
80,025
82,937
85,804
88,623
91,402
94,154
96,891
99,633
102,392
105,173
107,985
110,83
113,71
116,626
119,572
122,536
125,508
128,48
131,442
134,385
137,297
140,165
142,974
145,709
148,359
150,911
153,352
155,67
157,856
159,898
161,789
163,521
165,085
166,474
167,679
168,692
169,505
170,112
170,507
170,683
170,637
170,364
169,862
169,131
168,17
166,98
165,563
163,923
162,062
159,988
157,707
155,227
152,556
149,705
146,684
143,507
140,184
136,73
133,157
129,479
125,71
121,864
117,955
113,996
110,002
105,985
101,96
97,94
93,939
89,971
86,047
82,18
78,382
74,663
71,033
67,501
64,074
60,758
57,561
54,486
51,539
48,722
46,038
43,487
41,069
38,784
36,627
34,596
32,685
30,888
29,199
27,611
26,119
24,715
23,394
22,148
20,974
19,863
18,811
17,808
16,849
15,924
15,026
14,147
13,277
12,411
11,542
10,668
9,786
8,896
7,995
7,084
6,164
5,235
4,295
3,344
2,38
1,402
0,414
-0,576
-1,56
-2,527
-3,473
-4,392
-5,279
-6,137
-6,971
-7,798
-8,635
-9,491
-10,371
-11,273
-12,185
-13,095
-13,989
-14,85
-15,667
-16,433
-17,136
-17,774
-18,345
-18,833
-19,21
-19,436
-19,458
-19,242
-18,76
-17,993
-16,94
-15,617
-14,054
-12,307
-10,43
-8,467
-6,468
-4,47
-2,505
-0,623
1,119
2,656
3,91
4,816
5,311
5,327
4,818
3,763
2,174
0,102
-2,393
-5,259
-8,432
-11,837
-15,405
-19,057
-22,716
-26,32
-29,796
-33,073
-36,074
-38,709
-40,893
-42,567
-43,704
-44,303
-44,369
-43,913
-42,976
-41,627
-39,949
-38,038
-35,97
-33,8
-31,584
-29,388
-27,278
-25,328
-23,612
-22,192
-21,114
-20,425
-20,174
-20,402
-21,12
-22,304
-23,898
-25,83
-28,043
-30,49
-33,121
-35,877
-38,702
-41,549
-44,369
-47,122
-49,768
-52,256
-54,523
-56,509
-58,163
-59,442
-60,334
-60,841
-60,959
-60,689
-60,032
-59,005
-57,626
-55,911
-53,876
-51,534
-48,892
-45,963
-42,763
-39,316
-35,663
-31,864
-27,974
-24,046
-20,141
-16,327
-12,672
-9,239
-6,076
-3,214
-0,681
1,484
3,222
4,458
5,102
5,078
4,348
2,892
0,688
-2,286
-6,042
-10,574
-15,842
-21,825
-28,58
-36,115
-44,326
-52,961
-61,568
-69,648
-76,795
-82,594
-86,544
-88,363
-88,175
-86,521
-84,507
-83,373
-83,94
-86,864
-92,851
-102,105
-113,926
-126,743
-137,928
-144,312
-143,369
-133,024
-110,844
-74,87
-24,64
39,021
112,542
189,818
265,703
336,358
400,906
460,844
515,445
559,937
582,466
569,361
512,549
412,854
285,239
152,049
34,865
-51,033
-102,816
-127,146
-136,717
-142,694
-149,464
-156,535
-158,969
-153,761
-142,959
-130,44
-120,609
-115,744
-115,372
-118,183
-122,938
-128,656
-134,213
-138,386
-140,405
-140,041
-137,618
-133,759
-128,96
-123,64
-118,32
-113,513
-109,544
-106,522
-104,367
-102,9
-101,986
-101,538
-101,445
-101,569
-101,791
-102,022
-102,185
-102,229
-102,099
-101,737
-101,124
-100,28
-99,231
-98,009
-96,639
-95,122
-93,459
-91,643
-89,668
-87,541
-85,274
-82,884
-80,399
-77,851
-75,263
-72,657
-70,031
-67,359
-64,616
-61,783
-58,847
-55,818
-52,715
-49,566
-46,402
-43,248
-40,126
-37,045
-34,013
-31,029
-28,092
-25,198
-22,351
-19,567
-16,857
-14,235
-11,706
-9,265
-6,902
-4,602
-2,349
-0,125
2,083
4,283
6,48
8,678
10,874
13,064
15,247
17,42
19,585
21,742
23,889
26,022
28,135
30,221
32,275
34,288
36,255
38,168
40,023
41,813
43,535
45,186
46,761
48,253
49,653
50,955
52,151
53,237
54,206
55,053
55,772
56,36
56,817
57,139
57,322
57,359
57,238
56,955
56,512
55,912
55,167
54,285
53,275
52,152
50,933
49,631
48,25
46,789
45,23
43,57
41,809
39,954
38,026
36,034
33,978
31,864
29,686
27,434
25,1
22,657
20,065
17,312
14,395
11,333
8,177
4,969
1,739
-1,473
-4,648
-7,766
-10,798
-13,733
-16,553
-19,222
-21,705
-23,942
-25,85
-27,387
-28,523
-29,239
-29,579
-29,579
-29,282
-28,758
-28,054
-27,203
-26,246
-25,193
-24,057
-22,876
-21,684
-20,532
-19,496
-18,626
-17,964
-17,559
-17,401
-17,467
-17,722
-18,093
-18,522
-18,977
-19,425
-19,851
-20,25
-20,6
-20,883
-21,085
-21,169
-21,107
-20,867
-20,401
-19,697
-18,765
-17,623
-16,322
-14,902
-13,383
-11,79
-10,137
-8,43
-6,683
-4,9
-3,074
-1,211
0,677
2,574
4,451
6,293
8,097
9,865
11,611
13,346
15,073
16,797
18,524
20,255
21,99
23,721
25,436
27,124
28,783
30,409
32,005
33,569
35,098
36,589
38,037
39,436
40,783
42,071
43,293
44,444
45,522
46,527
47,459
48,321
49,115
49,843
50,507
51,108
51,646
52,12
52,526
52,863
53,126
53,313
53,42
53,447
53,391
53,255
53,039
52,743
52,364
51,897
51,339
50,693
49,961
49,146
48,254
47,294
46,28
45,239
44,185
43,13
42,077
41,021
39,958
38,888
37,807
36,708
35,587
34,428
33,226
31,982
30,686
29,324
27,872
26,283
24,527
22,596
20,489
18,212
15,779
13,197
10,482
7,672
4,797
1,89
-1,021
-3,928
-6,805
-9,615
-12,314
-14,833
-17,121
-19,157
-20,916
-22,368
-23,494
-24,261
-24,649
-24,673
-24,337
-23,632
-22,56
-21,111
-19,293
-17,143
-14,686
-11,954
-8,972
-5,75
-2,313
1,278
4,968
8,686
12,351
15,912
19,292
22,384
25,109
27,391
29,171
30,414
31,061
31,005
30,131
28,326
25,507
21,644
16,743
10,798
3,816
-4,173
-13,092
-22,827
-33,226
-44,236
-55,899
-68,101
-80,569
-92,879
-104,392
-114,525
-122,875
-128,889
-131,95
-131,939
-129,054
-123,878
-117,508
-111,151
-105,997
-103,117
-103,397
-105,577
-106,453
-104,693
-99,209
-90,522
-82,313
-70,517
-47,132
-7,257
57,132
143,397
239,879
341,873
440,334
527,171
599,526
644,46
649,045
608,615
520,868
394,708
249,881
105,263
-18,839
-107,047
-157,301
-175,528
-175,458
-170,755
-167,13
-164,825
-159,103
-147,293
-131,858
-116,483
-105,374
-100,439
-100,542
-103,902
-108,77
-113,334
-116,103
-116,273
-113,462
-107,848
-100,126
-91,012
-81,173
-71,41
-62,49
-54,857
-48,741
-44,162
-40,981
-39,098
-38,423
-38,806
-40,067
-42,043
-44,605
-47,633
-51,01
-54,583
-58,164
-61,582
-64,72
-67,496
-69,852
-71,742
-73,108
-73,911
-74,152
-73,842
-73,006
-71,683
-69,905
-67,721
-65,208
-62,453
-59,549
-56,592
-53,643
-50,742
-47,926
-45,216
-42,64
-40,215
-37,941
-35,809
-33,815
-31,951
-30,213
-28,593
-27,069
-25,612
-24,195
-22,784
-21,358
-19,903
-18,407
-16,858
-15,252
-13,584
-11,854
-10,07
-8,232
-6,34
-4,395
-2,395
-0,343
1,756
3,897
6,072
8,276
10,503
12,744
14,993
17,242
19,485
21,713
23,921
26,1
28,241
30,332
32,363
34,324
36,202
37,986
39,665
41,228
42,666
43,969
45,129
46,139
46,991
47,679
48,199
48,546
48,715
48,704
48,51
48,132
47,569
46,823
45,894
44,785
43,499
42,042
40,419
38,635
36,698
34,617
32,399
30,055
27,595
25,029
22,37
19,63
16,82
13,953
11,041
8,098
5,134
2,162
-0,808
-3,763
-6,694
-9,591
-12,445
-15,246
-17,987
-20,659
-23,256
-25,77
-28,196
-30,528
-32,761
-34,89
-36,912
-38,824
-40,623
-42,308
-43,878
-45,332
-46,67
-47,895
-49,006
-50,007
-50,901
-51,689
-52,377
-52,969
-53,468
-53,879
-54,208
-54,46
-54,638
-54,749
-54,796
-54,785
-54,72
-54,606
-54,447
-54,246
-54,009
-53,74
-53,442
-53,12
-52,777
-52,418
-52,046
-51,665
-51,278
-50,888
-50,499
-50,113
-49,734
-49,363
-49,002
-48,654
-48,32
-48,002
-47,7
-47,415
-47,147
-46,897
-46,665
-46,45
-46,253
-46,073
-45,91
-45,763
-45,634
-45,522
-45,428
-45,352
-45,293
-45,253
-45,23
-45,225
-45,238
-45,267
-45,313
-45,375
-45,451
-45,54
-45,642
-45,756
-45,878
-46,009
-46,146
-46,288
-46,433
-46,579
-46,725
-46,87
-47,012
-47,15
-47,283
-47,409
-47,528
-47,637
-47,736
-47,821
-47,891
-47,942
-47,97
-47,972
-47,943
-47,879
-47,776
-47,631
-47,438
-47,196
-46,903
-46,555
-46,151
-45,687
-45,159
-44,565
-43,902
-43,168
-42,358
-41,47
-40,501
-39,448
-38,312
-37,093
-35,788
-34,394
-32,905
-31,32
-29,64
-27,871
-26,021
-24,098
-22,116
-20,092
-18,056
-16,031
-14,038
-12,093
-10,206
-8,389
-6,66
-5,034
-3,525
-2,138
-0,862
0,314
1,405
2,439
3,447
4,479
5,598
6,856
8,288
9,921
11,766
13,843
16,181
18,798
21,696
24,861
28,255
31,835
35,551
39,335
43,102
46,753
50,166
53,241
55,907
58,101
59,778
60,878
61,304
60,965
59,795
57,752
54,84
51,101
46,561
41,26
35,287
28,734
21,699
14,304
6,556
-1,625
-10,161
-18,898
-27,541
-35,52
-42,266
-47,355
-50,224
-50,366
-47,858
-42,865
-35,878
-28,411
-22,176
-18,785
-19,967
-25,381
-32,185
-38,251
-42,447
-46,825
-55,698
-69,427
-82,354
-80,352
-48,52
22,789
134,993
271,855
411,871
532,072
608,267
635,233
618,107
566,888
500,001
423,034
332,479
228,088
111,267
-3,825
-96,125
-153,069
-173,577
-170,072
-158,194
-147,227
-138,999
-128,423
-112,671
-93,728
-74,998
-60,893
-53,287
-51,054
-52,675
-56,506
-60,721
-63,822
-64,95
-63,713
-60,313
-55,416
-49,602
-43,341
-37,253
-31,959
-27,794
-24,895
-23,18
-22,381
-22,309
-22,825
-23,759
-24,946
-26,236
-27,497
-28,631
-29,569
-30,25
-30,619
-30,644
-30,3
-29,589
-28,526
-27,142
-25,474
-23,56
-21,435
-19,13
-16,676
-14,111
-11,481
-8,83
-6,205
-3,641
-1,156
1,23
3,509
5,677
7,741
9,71
11,604
13,436
15,216
16,957
18,667
20,359
22,044
23,736
25,445
27,182
28,953
30,764
32,621
34,529
36,492
38,519
40,613
42,772
44,994
47,273
49,595
51,953
54,333
56,72
59,102
61,474
63,835
66,196
68,566
70,949
73,34
75,725
78,09
80,434
82,759
85,066
87,369
89,679
92,009
94,388
96,833
99,337
101,879
104,412
106,878
109,238
111,461
113,527
115,42
117,113
118,576
119,789
120,717
121,327
121,58
121,412
120,777
119,664
118,08
116,068
113,689
110,986
107,992
104,741
101,258
97,573
93,717
89,706
85,566
81,329
77,035
72,749
68,524
64,386
60,345
56,391
52,495
48,644
44,829
41,036
37,264
33,511
29,778
26,08
22,432
18,839
15,3
11,804
8,338
4,905
1,514
-1,82
-5,075
-8,232
-11,279
-14,195
-16,97
-19,595
-22,066
-24,386
-26,56
-28,591
-30,48
-32,226
-33,825
-35,279
-36,591
-37,765
-38,807
-39,723
-40,519
-41,205
-41,787
-42,274
-42,67
-42,98
-43,208
-43,359
-43,437
-43,448
-43,397
-43,291
-43,134
-42,934
-42,696
-42,427
-42,131
-41,814
-41,48
-41,134
-40,778
-40,418
-40,056
-39,696
-39,34
-38,993
-38,657
-38,335
-38,029
-37,741
-37,474
-37,229
-37,008
-36,812
-36,641
-36,495
-36,375
-36,281
-36,212
-36,168
-36,148
-36,152
-36,179
-36,229
-36,299
-36,39
-36,502
-36,634
-36,785
-36,953
-37,139
-37,342
-37,561
-37,796
-38,046
-38,309
-38,587
-38,88
-39,189
-39,514
-39,853
-40,205
-40,566
-40,937
-41,314
-41,694
-42,074
-42,449
-42,821
-43,194
-43,575
-43,962
-44,351
-44,73
-45,091
-45,429
-45,738
-46,006
-46,221
-46,372
-46,461
-46,499
-46,5
-46,466
-46,391
-46,256
-46,046
-45,762
-45,416
-45,027
-44,611
-44,181
-43,762
-43,395
-43,127
-42,984
-42,964
-43,031
-43,15
-43,308
-43,506
-43,762
-44,081
-44,443
-44,81
-45,145
-45,413
-45,572
-45,563
-45,286
-44,635
-43,552
-42,025
-40,086
-37,77
-35,078
-31,989
-28,479
-24,543
-20,204
-15,508
-10,49
-5,183
0,354
6,039
11,738
17,295
22,613
27,635
32,323
36,636
40,488
43,762
46,37
48,24
49,298
49,496
48,76
46,995
44,19
40,301
35,257
29,158
22,155
14,49
6,67
-0,826
-7,63
-13,134
-16,708
-18,228
-17,796
-16,074
-14,495
-14,178
-15,929
-20,847
-29,683
-42,134
-57,355
-73,277
-86,164
-92,642
-89,702
-73,527
-42,081
3,494
61,818
130,01
205,511
291,142
387,985
490,403
587,867
662,139
694,529
678,231
615,119
513,903
390,203
257,298
128,395
20,422
-54,534
-91,483
-93,9
-76,632
-56,023
-41,502
-36,095
-35,869
-35,197
-32,951
-30,318
-29,566
-33,003
-40,058
-48,824
-57,5
-64,008
-67,376
-67,592
-64,744
-59,358
-52,159
-43,784
-34,996
-26,563
-18,911
-12,245
-6,657
-2,08
1,53
4,192
5,98
6,966
7,203
6,747
5,643
3,95
1,771
-0,768
-3,529
-6,402
-9,296
-12,134
-14,839
-17,335
-19,554
-21,453
-22,998
-24,15
-24,882
-25,183
-25,053
-24,521
-23,63
-22,422
-20,952
-19,265
-17,404
-15,411
-13,334
-11,223
-9,116
-7,042
-5,022
-3,082
-1,243
0,478
2,073
3,548
4,91
6,166
7,325
8,397
9,395
10,335
11,235
12,117
12,995
13,878
14,774
15,69
16,631
17,601
18,599
19,62
20,66
21,716
22,786
23,866
24,952
26,035
27,107
28,161
29,188
30,18
31,131
32,033
32,879
33,662
34,376
35,014
35,571
36,039
36,409
36,673
36,823
36,852
36,751
36,513
36,131
35,6
34,914
34,069
33,06
31,886
30,542
29,028
27,343
25,486
23,46
21,266
18,908
16,39
13,718
10,898
7,937
4,843
1,624
-1,711
-5,152
-8,69
-12,313
-16,011
-19,772
-23,584
-27,435
-31,313
-35,206
-39,102
-42,989
-46,855
-50,689
-54,481
-58,22
-61,896
-65,499
-69,021
-72,453
-75,788
-79,019
-82,14
-85,145
-88,031
-90,793
-93,429
-95,936
-98,315
-100,563
-102,682
-104,672
-106,533
-108,269
-109,88
-111,371
-112,743
-114
-115,147
-116,186
-117,123
-117,96
-118,701
-119,351
-119,914
-120,392
-120,789
-121,109
-121,355
-121,529
-121,634
-121,674
-121,649
-121,563
-121,415
-121,208
-120,943
-120,62
-120,239
-119,8
-119,303
-118,749
-118,136
-117,465
-116,735
-115,945
-115,097
-114,188
-113,22
-112,192
-111,105
-109,96
-108,756
-107,496
-106,181
-104,813
-103,395
-101,928
-100,417
-98,863
-97,271
-95,644
-93,986
-92,301
-90,593
-88,868
-87,131
-85,387
-83,641
-81,9
-80,169
-78,453
-76,758
-75,09
-73,453
-71,851
-70,29
-68,774
-67,305
-65,889
-64,526
-63,221
-61,975
-60,789
-59,665
-58,603
-57,602
-56,663
-55,783
-54,961
-54,195
-53,484
-52,823
-52,211
-51,644
-51,118
-50,628
-50,169
-49,735
-49,318
-48,913
-48,511
-48,107
-47,694
-47,264
-46,811
-46,332
-45,82
-45,271
-44,679
-44,038
-43,344
-42,591
-41,774
-40,89
-39,934
-38,901
-37,789
-36,598
-35,327
-33,975
-32,54
-31,016
-29,404
-27,708
-25,935
-24,092
-22,188
-20,234
-18,25
-16,259
-14,285
-12,346
-10,456
-8,626
-6,872
-5,213
-3,664
-2,238
-0,935
0,258
1,353
2,365
3,317
4,241
5,183
6,199
7,332
8,611
10,063
11,715
13,608
15,786
18,276
21,087
24,207
27,611
31,267
35,138
39,173
43,291
47,396
51,39
55,19
58,739
61,965
64,769
67,024
68,604
69,419
69,427
68,604
66,907
64,307
60,785
56,333
51,029
44,924
37,986
30,299
22,033
13,467
5,145
-2,36
-8,655
-13,211
-15,448
-15,3
-12,944
-8,91
-4,481
-0,707
1,714
1,655
-1,755
-8,211
-16,773
-25,661
-31,843
-32,655
-25,748
-7,829
24,134
69,977
127,185
192,972
262,527
335,355
415,43
499,274
581,334
651,411
689,986
687,834
641,685
552,013
435,402
307,672
185,871
91,411
30,785
3,565
1,708
6,507
8,239
4,045
-4,773
-10,071
-9,264
-4,984
0,153
2,31
0,136
-4,953
-11,674
-18,874
-25,304
-30,008
-32,499
-32,573
-30,402
-26,526
-21,429
-15,501
-9,306
-3,425
1,812
6,212
9,748
12,547
14,657
16,103
16,98
17,393
17,435
17,177
16,635
15,796
14,693
13,392
11,977
10,523
9,068
7,643
6,282
5,032
3,954
3,078
2,406
1,927
1,629
1,511
1,592
1,893
2,411
3,131
4,027
5,078
6,275
7,605
9,039
10,533
12,033
13,503
14,933
16,316
17,647
18,916
20,106
21,201
22,204
23,117
23,944
24,69
25,353
25,944
26,481
26,992
27,51
28,056
28,645
29,286
29,989
30,762
31,613
32,545
33,555
34,64
35,799
37,034
38,345
39,73
41,181
42,69
44,249
45,851
47,489
49,153
50,834
52,521
54,202
55,869
57,512
59,118
60,675
62,171
63,593
64,932
66,176
67,311
68,323
69,194
69,911
70,466
70,85
71,059
71,095
70,962
70,675
70,25
69,697
69,02
68,222
67,294
66,231
65,027
63,675
62,177
60,533
58,741
56,805
54,727
52,496
50,096
47,498
44,664
41,577
38,235
34,644
30,838
26,85
22,725
18,525
14,296
10,08
5,917
1,833
-2,143
-5,97
-9,601
-12,973
-16,013
-18,672
-20,919
-22,733
-24,125
-25,119
-25,753
-26,095
-26,203
-26,118
-25,883
-25,519
-25,047
-24,504
-23,927
-23,36
-22,861
-22,475
-22,235
-22,17
-22,287
-22,579
-23,027
-23,587
-24,219
-24,9
-25,611
-26,345
-27,099
-27,864
-28,631
-29,395
-30,138
-30,848
-31,513
-32,118
-32,66
-33,142
-33,574
-33,974
-34,362
-34,748
-35,139
-35,539
-35,945
-36,356
-36,77
-37,179
-37,58
-37,97
-38,349
-38,718
-39,078
-39,426
-39,759
-40,073
-40,363
-40,627
-40,864
-41,071
-41,25
-41,402
-41,532
-41,645
-41,746
-41,84
-41,932
-42,026
-42,127
-42,239
-42,367
-42,513
-42,681
-42,874
-43,097
-43,352
-43,643
-43,971
-44,338
-44,745
-45,194
-45,684
-46,215
-46,786
-47,395
-48,043
-48,728
-49,447
-50,199
-50,982
-51,793
-52,63
-53,489
-54,367
-55,259
-56,162
-57,069
-57,976
-58,876
-59,764
-60,631
-61,47
-62,276
-63,041
-63,761
-64,428
-65,038
-65,586
-66,071
-66,488
-66,836
-67,113
-67,316
-67,442
-67,493
-67,468
-67,364
-67,182
-66,919
-66,577
-66,158
-65,664
-65,095
-64,451
-63,727
-62,926
-62,055
-61,121
-60,133
-59,101
-58,037
-56,959
-55,893
-54,86
-53,876
-52,954
-52,102
-51,328
-50,648
-50,071
-49,601
-49,238
-48,963
-48,76
-48,617
-48,507
-48,397
-48,245
-47,996
-47,606
-47,048
-46,293
-45,315
-44,09
-42,584
-40,781
-38,682
-36,294
-33,641
-30,748
-27,635
-24,348
-20,952
-17,515
-14,113
-10,821
-7,711
-4,872
-2,405
-0,395
1,095
1,999
2,257
1,804
0,587
-1,422
-4,222
-7,846
-12,411
-17,929
-24,262
-31,152
-38,132
-44,749
-50,661
-55,377
-58,233
-58,96
-57,775
-55,232
-52,49
-50,782
-51,094
-54,779
-63,265
-75,768
-89,531
-102,006
-110,525
-115,979
-121,871
-126,487
-123,698
-103,688
-55,734
22,807
126,551
246,552
372,144
492,532
596,332
670,076
701,591
685,409
625,387
531,992
415,748
287,012
154,942
31,156
-66,412
-125,789
-144,21
-130,332
-104,299
-80,54
-65,274
-57,596
-49,98
-40,067
-29,721
-21,291
-18,378
-21,314
-27,855
-36,304
-44,596
-50,973
-54,931
-56,266
-55,077
-52,064
-47,947
-43,286
-38,736
-34,904
-32,057
-30,308
-29,632
-29,812
-30,672
-32,083
-33,871
-35,886
-38,02
-40,168
-42,248
-44,193
-45,905
-47,306
-48,345
-48,982
-49,211
-49,034
-48,459
-47,513
-46,232
-44,654
-42,814
-40,746
-38,482
-36,062
-33,533
-30,942
-28,341
-25,766
-23,243
-20,791
-18,421
-16,137
-13,938
-11,815
-9,755
-7,75
-5,791
-3,873
-1,991
-0,139
1,694
3,518
5,34
7,17
9,014
10,879
12,77
14,69
16,643
18,628
20,647
22,699
24,787
26,912
29,074
31,276
33,516
35,794
38,11
40,461
42,844
45,254
47,686
50,133
52,59
55,049
57,501
59,938
62,351
64,73
67,065
69,345
71,559
73,695
75,744
77,693
79,531
81,247
82,83
84,271
85,559
86,686
87,644
88,425
89,023
89,432
89,647
89,665
89,483
89,099
88,513
87,726
86,74
85,557
84,183
82,623
80,882
78,97
76,893
74,662
72,285
69,773
67,137
64,389
61,541
58,605
55,595
52,522
49,401
46,243
43,063
39,872
36,683
33,508
30,359
27,245
24,178
21,167
18,22
15,346
12,552
9,845
7,23
4,71
2,291
-0,026
-2,238
-4,346
-6,349
-8,248
-10,045
-11,741
-13,339
-14,843
-16,256
-17,581
-18,824
-19,989
-21,081
-22,106
-23,067
-23,971
-24,823
-25,628
-26,391
-27,117
-27,81
-28,474
-29,113
-29,73
-30,33
-30,914
-31,485
-32,044
-32,594
-33,134
-33,665
-34,186
-34,696
-35,194
-35,678
-36,145
-36,595
-37,023
-37,427
-37,804
-38,152
-38,468
-38,75
-38,993
-39,197
-39,359
-39,476
-39,548
-39,572
-39,549
-39,477
-39,356
-39,187
-38,97
-38,706
-38,397
-38,044
-37,649
-37,214
-36,743
-36,239
-35,705
-35,146
-34,566
-33,972
-33,368
-32,76
-32,155
-31,558
-30,976
-30,415
-29,88
-29,377
-28,912
-28,489
-28,114
-27,791
-27,524
-27,317
-27,173
-27,094
-27,083
-27,14
-27,267
-27,462
-27,727
-28,059
-28,458
-28,922
-29,449
-30,036
-30,681
-31,379
-32,126
-32,917
-33,747
-34,607
-35,491
-36,39
-37,297
-38,204
-39,103
-39,986
-40,845
-41,673
-42,466
-43,218
-43,921
-44,569
-45,158
-45,682
-46,134
-46,511
-46,807
-47,019
-47,143
-47,18
-47,13
-46,994
-46,772
-46,466
-46,073
-45,595
-45,034
-44,395
-43,684
-42,913
-42,093
-41,244
-40,387
-39,545
-38,738
-37,981
-37,288
-36,668
-36,123
-35,657
-35,275
-34,979
-34,766
-34,633
-34,563
-34,539
-34,542
-34,536
-34,477
-34,317
-34
-33,477
-32,711
-31,674
-30,355
-28,748
-26,847
-24,65
-22,169
-19,423
-16,455
-13,31
-10,033
-6,7
-3,415
-0,299
2,51
4,894
6,744
7,948
8,404
8,012
6,678
4,343
0,944
-3,638
-9,422
-16,308
-24,068
-32,252
-40,354
-47,968
-54,61
-59,654
-62,715
-63,791
-63,323
-62,431
-62,319
-63,794
-67,645
-74,741
-85,419
-99,149
-114,324
-128,003
-136,945
-138,245
-128,944
-106,006
-66,732
-11,411
56,46
132,81
212,415
294,694
383,891
477,059
568,028
644,148
682,852
673,624
613,548
505,596
370,087
224,172
85,226
-24,744
-98,919
-135,849
-141,656
-135,16
-126,818
-120,984
-118,158
-110,847
-97,195
-80,708
-64,498
-53,092
-48,194
-48,228
-51,657
-56,897
-62,127
-65,925
-67,517
-66,562
-63,294
-58,423
-52,587
-46,296
-40,205
-34,953
-30,868
-28,097
-26,569
-26,03
-26,295
-27,222
-28,634
-30,36
-32,26
-34,206
-36,096
-37,853
-39,383
-40,607
-41,475
-41,953
-42,035
-41,729
-41,056
-40,048
-38,747
-37,197
-35,435
-33,498
-31,424
-29,259
-27,052
-24,854
-22,711
-20,655
-18,708
-16,887
-15,195
-13,63
-12,185
-10,843
-9,587
-8,403
-7,279
-6,205
-5,17
-4,162
-3,168
-2,176
-1,173
-0,15
0,904
1,995
3,131
4,316
5,553
6,845
8,192
9,597
11,061
12,588
14,179
15,837
17,56
19,351
21,209
23,131
25,114
27,155
29,248
31,386
33,562
35,769
37,996
40,234
42,473
44,703
46,912
49,089
51,222
53,3
55,311
57,243
59,086
60,828
62,459
63,97
65,35
66,593
67,69
68,633
69,418
70,037
70,485
70,76
70,856
70,772
70,507
70,059
69,429
68,618
67,631
66,47
65,139
63,646
61,995
60,196
58,255
56,181
53,984
51,674
49,259
46,751
44,161
41,498
38,774
35,998
33,181
30,332
27,462
24,58
21,695
18,816
15,951
13,109
10,298
7,524
4,796
2,12
-0,499
-3,053
-5,538
-7,949
-10,281
-12,531
-14,696
-16,772
-18,758
-20,651
-22,451
-24,156
-25,767
-27,284
-28,707
-30,036
-31,274
-32,419
-33,475
-34,441
-35,32
-36,113
-36,821
-37,446
-37,99
-38,456
-38,845
-39,161
-39,404
-39,578
-39,685
-39,728
-39,71
-39,633
-39,501
-39,316
-39,083
-38,805
-38,485
-38,128
-37,738
-37,317
-36,87
-36,399
-35,909
-35,401
-34,881
-34,35
-33,812
-33,272
-32,732
-32,197
-31,671
-31,156
-30,657
-30,175
-29,715
-29,278
-28,867
-28,484
-28,132
-27,813
-27,529
-27,282
-27,074
-26,907
-26,782
-26,701
-26,663
-26,667
-26,713
-26,799
-26,923
-27,082
-27,273
-27,494
-27,743
-28,018
-28,319
-28,646
-28,997
-29,37
-29,762
-30,17
-30,589
-31,015
-31,44
-31,859
-32,269
-32,67
-33,064
-33,453
-33,833
-34,196
-34,534
-34,83
-35,066
-35,224
-35,281
-35,223
-35,04
-34,732
-34,31
-33,784
-33,168
-32,463
-31,66
-30,751
-29,74
-28,637
-27,458
-26,237
-25,016
-23,849
-22,809
-21,953
-21,32
-20,927
-20,757
-20,783
-20,97
-21,301
-21,772
-22,379
-23,105
-23,921
-24,788
-25,647
-26,42
-27,001
-27,243
-27,014
-26,211
-24,778
-22,711
-20,031
-16,776
-12,969
-8,622
-3,756
1,595
7,378
13,531
19,971
26,594
33,248
39,723
45,81
51,321
56,122
60,141
63,327
65,643
67,027
67,405
66,717
64,913
61,974
57,907
52,721
46,431
39,105
30,861
21,843
12,231
2,12
-8,51
-19,593
-30,944
-42,195
-52,725
-61,923
-69,334
-74,443
-76,664
-75,721
-71,711
-65,322
-58,055
-51,492
-46,855
-45,303
-47,742
-54,278
-64,108
-75,321
-84,622
-88,149
-82,365
-63,757
-28,943
22,57
88,211
164,854
247,43
333,994
427,551
525,183
619,294
696,527
736,43
727,963
671,304
573,441
448,54
310,048
168,892
39,303
-62,226
-125,623
-148,936
-141,582
-122,552
-104,635
-93,053
-86,602
-78,549
-67,45
-55,747
-46,022
-41,693
-43,099
-48,207
-55,478
-62,958
-68,81
-72,402
-73,486
-72,162
-69,127
-65,058
-60,465
-55,991
-52,292
-49,679
-48,276
-48,032
-48,687
-50,035
-51,922
-54,155
-56,543
-58,942
-61,224
-63,291
-65,079
-66,509
-67,512
-68,05
-68,099
-67,662
-66,756
-65,411
-63,672
-61,593
-59,23
-56,632
-53,846
-50,919
-47,899
-44,839
-41,782
-38,763
-35,802
-32,912
-30,101
-27,38
-24,753
-22,217
-19,765
-17,385
-15,077
-12,853
-10,731
-8,718
-6,828
-5,077
-3,491
-2,119
-1,007
-0,193
0,288
0,421
0,202
-0,372
-1,291
-2,526
-4,036
-5,753
-7,594
-9,498
-11,392
-13,194
-14,814
-16,127
-17,007
-17,354
-17,073
-16,079
-14,323
-11,766
-8,39
-4,227
0,675
6,233
12,33
18,87
25,75
32,844
40,02
47,116
53,95
60,375
66,248
71,426
75,801
79,282
81,796
83,325
83,875
83,475
82,196
80,101
77,251
73,738
69,656
65,119
60,268
55,216
50,065
44,929
39,897
35,046
30,446
26,131
22,116
18,408
14,99
11,843
8,955
6,294
3,826
1,509
-0,714
-2,887
-5,036
-7,197
-9,392
-11,639
-13,955
-16,339
-18,781
-21,273
-23,8
-26,344
-28,895
-31,434
-33,938
-36,386
-38,752
-41,015
-43,165
-45,191
-47,085
-48,844
-50,464
-51,949
-53,304
-54,535
-55,647
-56,644
-57,53
-58,311
-58,995
-59,589
-60,102
-60,54
-60,908
-61,213
-61,458
-61,647
-61,784
-61,871
-61,91
-61,902
-61,85
-61,758
-61,63
-61,469
-61,278
-61,061
-60,821
-60,563
-60,288
-60,001
-59,703
-59,397
-59,087
-58,775
-58,464
-58,157
-57,857
-57,567
-57,288
-57,023
-56,776
-56,548
-56,341
-56,158
-56,001
-55,872
-55,774
-55,709
-55,678
-55,684
-55,727
-55,809
-55,93
-56,091
-56,29
-56,527
-56,8
-57,107
-57,447
-57,816
-58,212
-58,633
-59,076
-59,539
-60,019
-60,51
-61,007
-61,505
-61,998
-62,481
-62,946
-63,386
-63,792
-64,157
-64,476
-64,742
-64,947
-65,08
-65,128
-65,084
-64,944
-64,708
-64,375
-63,949
-63,436
-62,85
-62,21
-61,534
-60,834
-60,12
-59,394
-58,665
-57,945
-57,249
-56,591
-55,974
-55,392
-54,838
-54,303
-53,761
-53,182
-52,513
-51,695
-50,685
-49,454
-47,984
-46,27
-44,301
-42,066
-39,561
-36,788
-33,759
-30,498
-27,026
-23,375
-19,605
-15,797
-12,057
-8,503
-5,216
-2,259
0,313
2,464
4,155
5,347
6,021
6,165
5,755
4,764
3,146
0,87
-2,057
-5,582
-9,604
-14,031
-18,816
-23,914
-29,29
-34,926
-40,759
-46,791
-53,118
-59,692
-66,335
-72,741
-78,312
-82,443
-84,722
-84,632
-81,702
-75,973
-67,735
-57,697
-47,381
-38,485
-32,43
-30,525
-33,709
-40,485
-48,948
-58,177
-64,63
-67,388
-65,391
-51,543
-23,262
22,704
90,335
174,092
271,779
379,966
487,481
584,696
656,292
687,57
674,183
618,338
529,491
417,942
292,466
162,12
38,29
-62,504
-128,553
-156,63
-153,888
-137,498
-119,94
-106,954
-98,256
-87,916
-74,692
-60,824
-48,691
-41,779
-40,562
-43,061
-47,787
-52,752
-56,082
-57,152
-55,696
-51,767
-46,036
-39,209
-31,841
-24,621
-18,244
-13,04
-9,148
-6,552
-5,015
-4,352
-4,419
-5,026
-5,987
-7,159
-8,414
-9,644
-10,772
-11,695
-12,325
-12,608
-12,503
-12,001
-11,109
-9,841
-8,229
-6,314
-4,137
-1,738
0,843
3,57
6,395
9,269
12,14
14,957
17,684
20,3
22,787
25,142
27,366
29,467
31,461
33,367
35,198
36,967
38,683
40,357
41,999
43,622
45,24
46,863
48,503
50,167
51,861
53,592
55,362
57,173
59,023
60,911
62,838
64,802
66,804
68,844
70,922
73,035
75,183
77,363
79,571
81,802
84,05
86,309
88,572
90,832
93,08
95,308
97,507
99,668
101,782
103,84
105,83
107,744
109,572
111,303
112,929
114,44
115,828
117,085
118,204
119,178
120,002
120,67
121,178
121,522
121,697
121,702
121,535
121,194
120,678
119,988
119,125
118,09
116,886
115,516
113,985
112,297
110,457
108,471
106,345
104,086
101,702
99,201
96,592
93,882
91,081
88,198
85,243
82,224
79,151
76,032
72,878
69,695
66,494
63,282
60,068
56,86
53,665
50,492
47,349
44,242
41,179
38,166
35,211
32,32
29,5
26,755
24,091
21,514
19,028
16,637
14,346
12,156
10,07
8,091
6,219
4,455
2,8
1,253
-0,185
-1,516
-2,74
-3,86
-4,876
-5,79
-6,606
-7,325
-7,951
-8,487
-8,936
-9,302
-9,589
-9,802
-9,946
-10,026
-10,046
-10,014
-9,934
-9,813
-9,657
-9,47
-9,26
-9,031
-8,788
-8,534
-8,273
-8,007
-7,741
-7,475
-7,213
-6,956
-6,707
-6,468
-6,241
-6,027
-5,827
-5,64
-5,466
-5,303
-5,152
-5,009
-4,873
-4,741
-4,61
-4,48
-4,35
-4,215
-4,068
-3,901
-3,708
-3,49
-3,248
-2,984
-2,703
-2,413
-2,126
-1,863
-1,642
-1,476
-1,371
-1,331
-1,364
-1,482
-1,7
-2,032
-2,473
-3,012
-3,631
-4,315
-5,038
-5,763
-6,434
-6,981
-7,353
-7,516
-7,447
-7,126
-6,516
-5,577
-4,277
-2,601
-0,561
1,818
4,513
7,487
10,688
14,034
17,405
20,674
23,748
26,551
29,022
31,074
32,572
33,386
33,407
32,563
30,836
28,198
24,595
20,002
14,407
7,843
0,442
-7,735
-16,729
-26,452
-36,727
-47,178
-57,094
-65,836
-72,977
-77,968
-80,317
-79,979
-77,075
-72,375
-67,513
-63,873
-62,589
-64,863
-71,204
-81,066
-93,519
-106,388
-115,887
-118,507
-110,704
-88,471
-50,423
1,556
65,475
137,757
215,773
302,326
396,999
492,925
579,033
636,679
648,779
611,048
527,404
408,05
269,489
125,214
-11,657
-123,208
-196,745
-227,912
-220,932
-191,804
-158,163
-129,699
-109,449
-94,512
-80,082
-65,392
-52,183
-42,946
-40,306
-44,487
-53,902
-66,028
-77,817
-87,614
-94,849
-99,323
-101,063
-99,897
-95,935
-90,074
-83,647
-77,555
-72,187
-67,61
-63,762
-60,827
-58,949
-57,934
-57,35
-56,828
-56,212
-55,507
-54,792
-54,047
-53,178
-52,177
-51,135
-50,165
-49,353
-48,738
-48,296
-48,012
-47,908
-48,004
-48,304
-48,795
-49,427
-50,143
-50,917
-51,73
-52,563
-53,389
-54,148
-54,776
-55,232
-55,479
-55,498
-55,274
-54,782
-54,005
-52,952
-51,638
-50,099
-48,379
-46,503
-44,489
-42,354
-40,115
-37,801
-35,435
-33,029
-30,587
-28,114
-25,613
-23,093
-20,562
-18,012
-15,435
-12,819
-10,149
-7,421
-4,634
-1,79
1,107
4,051
7,031
10,035
13,041
16,033
18,994
21,908
24,76
27,533
30,206
32,761
35,18
37,445
39,543
41,459
43,179
44,693
45,993
47,071
47,921
48,539
48,919
49,06
48,958
48,611
48,019
47,184
46,107
44,791
43,241
41,462
39,462
37,249
34,831
32,219
29,422
26,454
23,325
20,049
16,638
13,107
9,468
5,735
1,923
-1,955
-5,885
-9,854
-13,848
-17,855
-21,862
-25,859
-29,834
-33,777
-37,678
-41,528
-45,319
-49,044
-52,695
-56,267
-59,755
-63,153
-66,458
-69,665
-72,773
-75,779
-78,681
-81,478
-84,169
-86,755
-89,237
-91,614
-93,889
-96,064
-98,139
-100,118
-102,003
-103,797
-105,503
-107,123
-108,662
-110,122
-111,508
-112,821
-114,067
-115,246
-116,361
-117,413
-118,405
-119,337
-120,208
-121,019
-121,769
-122,457
-123,083
-123,647
-124,148
-124,586
-124,962
-125,275
-125,525
-125,71
-125,829
-125,877
-125,852
-125,749
-125,565
-125,298
-124,944
-124,503
-123,973
-123,354
-122,648
-121,853
-120,966
-119,982
-118,899
-117,719
-116,448
-115,095
-113,674
-112,203
-110,703
-109,196
-107,7
-106,227
-104,78
-103,358
-101,955
-100,568
-99,2
-97,86
-96,558
-95,302
-94,095
-92,935
-91,812
-90,701
-89,574
-88,397
-87,151
-85,834
-84,462
-83,066
-81,689
-80,383
-79,185
-78,117
-77,188
-76,39
-75,72
-75,178
-74,776
-74,542
-74,511
-74,724
-75,207
-75,955
-76,943
-78,131
-79,451
-80,821
-82,18
-83,494
-84,778
-86,086
-87,474
-88,983
-90,627
-92,411
-94,357
-96,481
-98,811
-101,405
-104,291
-107,549
-111,368
-115,819
-120,831
-126,199
-131,424
-135,978
-139,531
-141,602
-141,63
-139,584
-135,729
-130,719
-126,003
-122,73
-121,56
-123,556
-129,512
-138,984
-150,905
-163,282
-172,751
-176,462
-171,992
-155,88
-124,981
-79,275
-21,143
46,18
117,293
191,463
272,884
358,941
444,66
519,132
561,006
559,009
508,723
411,042
284,269
146,073
14,731
-87,479
-153,531
-183,162
-183,72
-173,924
-164,04
-158,604
-158,034
-155,092
-147,981
-138,987
-130,186
-125,705
-126,854
-131,861
-139,161
-146,789
-152,706
-156,146
-156,853
-154,661
-149,999
-143,453
-135,512
-126,875
-118,354
-110,384
-103,152
-96,723
-90,922
-85,613
-80,756
-76,236
-71,926
-67,756
-63,685
-59,743
-56,04
-52,651
-49,596
-46,857
-44,38
-42,143
-40,175
-38,508
-37,177
-36,21
-35,612
-35,403
-35,622
-36,275
-37,325
-38,682
-40,194
-41,707
-43,124
-44,378
-45,437
-46,263
-46,794
-46,976
-46,775
-46,161
-45,109
-43,583
-41,518
-38,882
-35,701
-32,043
-28,032
-23,8
-19,433
-14,999
-10,55
-6,124
-1,767
2,487
6,636
10,672
14,578
18,323
21,85
25,119
28,13
30,904
33,492
35,956
38,332
40,648
42,933
45,202
47,466
49,727
51,964
54,161
56,31
58,414
60,49
62,549
64,59
66,6
68,564
70,454
72,255
73,949
75,517
76,944
78,223
79,348
80,323
81,156
81,846
82,392
82,79
83,036
83,128
83,066
82,851
82,485
81,973
81,318
80,527
79,608
78,564
77,401
76,124
74,734
73,237
71,637
69,94
68,15
66,276
64,323
62,3
60,212
58,069
55,878
53,645
51,379
49,087
46,777
44,454
42,128
39,806
37,495
35,201
32,933
30,697
28,499
26,346
24,244
22,199
20,215
18,297
16,45
14,676
12,981
11,366
9,835
8,389
7,032
5,763
4,586
3,499
2,502
1,596
0,777
0,046
-0,6
-1,164
-1,648
-2,056
-2,39
-2,655
-2,854
-2,993
-3,074
-3,102
-3,082
-3,017
-2,91
-2,765
-2,584
-2,37
-2,124
-1,849
-1,545
-1,215
-0,861
-0,483
-0,083
0,335
0,77
1,223
1,694
2,185
2,7
3,241
3,811
4,417
5,063
5,752
6,49
7,274
8,108
8,997
9,944
10,958
12,044
13,2
14,425
15,718
17,072
18,476
19,914
21,359
22,791
24,201
25,582
26,938
28,271
29,579
30,865
32,131
33,38
34,621
35,854
37,077
38,298
39,538
40,831
42,228
43,763
45,437
47,25
49,186
51,22
53,325
55,461
57,573
59,627
61,598
63,471
65,248
66,909
68,413
69,712
70,742
71,461
71,867
71,963
71,755
71,279
70,575
69,705
68,746
67,721
66,615
65,4
64,044
62,552
60,948
59,23
57,396
55,428
53,276
50,928
48,343
45,38
41,968
38,132
33,994
29,95
26,479
23,928
22,724
23,362
25,983
30,409
36,122
41,895
46,449
48,842
47,967
42,895
33,65
21,108
6,908
-6,09
-14,612
-15,665
-5,69
18,907
58,501
110,599
172,835
240,947
314,556
398,387
489,415
581,248
661,651
708,305
709,862
662,45
568,241
446,398
314,156
189,279
92,94
30,851
2,847
1,383
7,764
12,362
12,019
7,503
6,837
12,458
21,423
30,865
36,691
37,376
34,386
29,158
22,955
17,126
12,726
10,298
10,122
12,052
15,491
19,884
24,781
29,609
33,821
37,123
39,361
40,547
40,86
40,425
39,349
37,785
35,878
33,75
31,498
29,2
26,924
24,762
22,819
21,166
19,852
18,898
18,31
18,09
18,224
18,688
19,443
20,451
21,679
23,09
24,655
26,336
28,088
29,869
31,638
33,368
35,039
36,644
38,179
39,645
41,051
42,408
43,73
45,031
46,32
47,603
48,888
50,184
51,499
52,844
54,225
55,648
57,119
58,64
60,212
61,837
63,511
65,233
66,997
68,801
70,64
72,512
74,412
76,336
78,278
80,232
82,192
84,151
86,1
88,029
89,931
91,794
93,609
95,367
97,056
98,668
100,192
101,619
102,939
104,144
105,224
106,172
106,979
107,64
108,147
108,495
108,68
108,697
108,544
108,22
107,722
107,052
106,21
105,198
104,018
102,675
101,172
99,516
97,711
95,766
93,687
91,483
89,163
86,736
84,211
81,598
78,907
76,147
73,329
70,462
67,555
64,618
61,661
58,692
55,72
52,753
49,799
46,866
43,96
41,089
38,257
35,47
32,734
30,052
27,429
24,868
22,372
19,942
17,582
15,291
13,072
10,923
8,845
6,837
4,898
3,027
1,222
-0,518
-2,197
-3,815
-5,375
-6,878
-8,328
-9,726
-11,074
-12,376
-13,633
-14,847
-16,021
-17,156
-18,257
-19,323
-20,358
-21,365
-22,345
-23,3
-24,235
-25,149
-26,047
-26,93
-27,801
-28,66
-29,51
-30,351
-31,184
-32,009
-32,826
-33,634
-34,431
-35,218
-35,992
-36,753
-37,498
-38,228
-38,941
-39,636
-40,313
-40,971
-41,606
-42,216
-42,798
-43,35
-43,867
-44,343
-44,775
-45,156
-45,482
-45,748
-45,95
-46,08
-46,131
-46,092
-45,958
-45,727
-45,4
-44,979
-44,471
-43,884
-43,234
-42,541
-41,823
-41,095
-40,367
-39,644
-38,935
-38,249
-37,593
-36,976
-36,398
-35,85
-35,32
-34,796
-34,248
-33,65
-32,962
-32,13
-31,119
-29,905
-28,471
-26,822
-24,959
-22,884
-20,62
-18,193
-15,634
-12,996
-10,322
-7,65
-5,05
-2,584
-0,323
1,636
3,233
4,424
5,173
5,475
5,327
4,726
3,699
2,286
0,522
-1,543
-3,884
-6,517
-9,423
-12,587
-15,987
-19,544
-23,23
-27,059
-31,038
-35,213
-39,635
-44,29
-49,248
-54,678
-60,584
-66,867
-73,246
-79,118
-83,966
-87,475
-89,198
-88,704
-85,994
-81,316
-75,493
-70,114
-66,483
-65,491
-68,068
-74,647
-84,667
-96,931
-109,089
-117,591
-119,059
-110,415
-88,615
-51,359
0,7
64,592
136,894
212,216
288,667
368,287
447,352
520,914
579,668
605,944
590,656
530,2
427,326
300,015
167,278
49,183
-37,065
-88,293
-109,655
-114,205
-115,401
-118,501
-122,943
-123,275
-115,775
-102,2
-86,718
-74,14
-66,843
-64,433
-65,676
-69,11
-73,636
-78,138
-81,332
-82,519
-81,579
-78,847
-74,968
-70,473
-65,778
-61,407
-57,877
-55,477
-54,293
-54,207
-54,986
-56,451
-58,457
-60,851
-63,481
-66,199
-68,877
-71,401
-73,677
-75,627
-77,193
-78,332
-79,023
-79,259
-79,046
-78,416
-77,412
-76,073
-74,444
-72,559
-70,455
-68,177
-65,778
-63,313
-60,835
-58,383
-55,985
-53,662
-51,428
-49,289
-47,247
-45,296
-43,42
-41,611
-39,866
-38,178
-36,547
-34,967
-33,429
-31,927
-30,453
-29,002
-27,57
-26,153
-24,747
-23,35
-21,962
-20,583
-19,213
-17,853
-16,499
-15,149
-13,801
-12,451
-11,099
-9,74
-8,374
-6,999
-5,616
-4,224
-2,826
-1,423
-0,018
1,387
2,788
4,18
5,56
6,923
8,263
9,574
10,85
12,084
13,271
14,403
15,473
16,475
17,401
18,245
19,001
19,661
20,221
20,673
21,013
21,235
21,333
21,305
21,144
20,848
20,415
19,841
19,126
18,27
17,272
16,134
14,858
13,445
11,901
10,228
8,432
6,518
4,492
2,36
0,13
-2,191
-4,594
-7,071
-9,615
-12,216
-14,866
-17,555
-20,277
-23,02
-25,778
-28,542
-31,303
-34,053
-36,785
-39,491
-42,164
-44,797
-47,384
-49,918
-52,394
-54,808
-57,154
-59,429
-61,628
-63,75
-65,791
-67,749
-69,623
-71,411
-73,113
-74,73
-76,261
-77,707
-79,069
-80,349
-81,547
-82,666
-83,707
-84,673
-85,565
-86,386
-87,137
-87,821
-88,439
-88,994
-89,488
-89,922
-90,298
-90,619
-90,887
-91,102
-91,268
-91,386
-91,458
-91,487
-91,474
-91,421
-91,332
-91,206
-91,048
-90,859
-90,641
-90,397
-90,127
-89,836
-89,524
-89,196
-88,852
-88,496
-88,129
-87,756
-87,379
-87
-86,624
-86,252
-85,889
-85,538
-85,202
-84,884
-84,588
-84,315
-84,069
-83,851
-83,662
-83,503
-83,374
-83,275
-83,206
-83,165
-83,153
-83,168
-83,208
-83,273
-83,361
-83,471
-83,598
-83,738
-83,885
-84,035
-84,18
-84,314
-84,43
-84,518
-84,573
-84,589
-84,56
-84,482
-84,346
-84,138
-83,853
-83,486
-83,038
-82,509
-81,904
-81,225
-80,485
-79,704
-78,899
-78,089
-77,28
-76,468
-75,654
-74,838
-74,022
-73,211
-72,402
-71,576
-70,722
-69,83
-68,889
-67,886
-66,789
-65,548
-64,121
-62,483
-60,631
-58,585
-56,365
-53,992
-51,495
-48,909
-46,278
-43,667
-41,113
-38,64
-36,276
-34,051
-32,02
-30,26
-28,829
-27,759
-27,051
-26,679
-26,615
-26,833
-27,279
-27,904
-28,663
-29,507
-30,437
-31,463
-32,57
-33,759
-35,031
-36,377
-37,83
-39,441
-41,246
-43,34
-45,901
-49
-52,608
-56,534
-60,317
-63,516
-65,813
-66,806
-66,037
-63,388
-59,103
-53,963
-49,515
-47,163
-47,845
-52,463
-61,625
-75,129
-91,954
-109,886
-125,212
-134,328
-134,187
-121,474
-93,661
-49,593
10,894
84,589
166,189
252,129
337,075
417,25
489,87
545,616
578,856
585,862
561,141
509,546
435,525
340,794
236,524
132,514
38,04
-32,864
-77,433
-101,421
-110,114
-112,629
-112,921
-107,99
-97,676
-83,082
-66,848
-53,766
-45,987
-43,353
-45,039
-49,485
-55,34
-61,293
-65,877
-68,215
-68,048
-65,63
-61,558
-56,397
-50,669
-44,987
-39,947
-35,902
-32,97
-31,076
-30,023
-29,664
-29,877
-30,522
-31,451
-32,537
-33,692
-34,841
-35,926
-36,868
-37,57
-37,966
-38,016
-37,701
-37,026
-36,006
-34,66
-33,019
-31,125
-29,016
-26,727
-24,295
-21,751
-19,134
-16,487
-13,85
-11,266
-8,764
-6,363
-4,072
-1,894
0,174
2,14
4,016
5,816
7,552
9,235
10,873
12,472
14,041
15,59
17,129
18,667
20,211
21,768
23,342
24,937
26,555
28,195
29,857
31,54
33,24
34,958
36,692
38,442
40,204
41,976
43,756
45,54
47,323
49,101
50,867
52,616
54,339
56,031
57,684
59,29
60,843
62,335
63,758
65,104
66,368
67,541
68,616
69,586
70,446
71,189
71,809
72,303
72,665
72,893
72,983
72,934
72,745
72,414
71,942
71,329
70,577
69,688
68,664
67,508
66,224
64,817
63,291
61,653
59,908
58,062
56,122
54,095
51,986
49,803
47,553
45,243
42,879
40,47
38,021
35,539
33,033
30,508
27,97
25,427
22,884
20,347
17,821
15,311
12,821
10,357
7,922
5,52
3,153
0,826
-1,46
-3,701
-5,898
-8,046
-10,147
-12,197
-14,198
-16,148
-18,046
-19,894
-21,69
-23,434
-25,126
-26,767
-28,356
-29,893
-31,38
-32,815
-34,201
-35,535
-36,821
-38,057
-39,244
-40,383
-41,473
-42,515
-43,508
-44,452
-45,348
-46,194
-46,99
-47,735
-48,43
-49,073
-49,663
-50,199
-50,681
-51,106
-51,474
-51,784
-52,034
-52,224
-52,352
-52,419
-52,423
-52,366
-52,248
-52,068
-51,828
-51,529
-51,171
-50,757
-50,288
-49,767
-49,195
-48,577
-47,915
-47,214
-46,478
-45,713
-44,922
-44,111
-43,287
-42,454
-41,619
-40,788
-39,967
-39,163
-38,382
-37,632
-36,918
-36,247
-35,626
-35,06
-34,554
-34,114
-33,743
-33,444
-33,221
-33,077
-33,012
-33,027
-33,123
-33,301
-33,559
-33,897
-34,312
-34,8
-35,356
-35,978
-36,658
-37,387
-38,158
-38,96
-39,784
-40,621
-41,462
-42,297
-43,114
-43,904
-44,657
-45,366
-46,022
-46,611
-47,122
-47,542
-47,866
-48,094
-48,226
-48,261
-48,199
-48,04
-47,789
-47,456
-47,044
-46,545
-45,953
-45,259
-44,467
-43,587
-42,632
-41,616
-40,543
-39,409
-38,215
-36,975
-35,692
-34,365
-32,985
-31,533
-30,019
-28,48
-26,95
-25,465
-24,046
-22,695
-21,423
-20,246
-19,176
-18,227
-17,394
-16,661
-16,03
-15,518
-15,15
-14,959
-14,936
-15,034
-15,207
-15,414
-15,633
-15,851
-16,042
-16,172
-16,234
-16,258
-16,303
-16,44
-16,703
-17,082
-17,57
-18,177
-18,961
-20,007
-21,37
-23,057
-25,104
-27,635
-30,727
-34,361
-38,341
-42,23
-45,619
-48,253
-49,774
-49,71
-47,84
-44,208
-39,329
-34,336
-30,099
-27,323
-27,253
-31,09
-39,369
-50,737
-61,709
-68,539
-69,183
-66,115
-62,81
-59,15
-51,824
-30,077
17,702
95,717
204,266
332,963
462,856
575,912
651,924
676,176
646,487
566,752
447,586
305,414
154,426
9,469
-112,362
-199,692
-247,122
-255,595
-234,567
-195,313
-146,701
-97,871
-58,044
-33,564
-28,204
-39,458
-56,96
-71,627
-78,27
-76,488
-71,935
-68,573
-67,134
-66,981
-65,626
-62,076
-57,194
-51,839
-47,004
-43,337
-40,818
-39,381
-38,966
-39,33
-40,265
-41,63
-43,272
-45,069
-46,917
-48,705
-50,309
-51,646
-52,654
-53,276
-53,47
-53,209
-52,485
-51,308
-49,711
-47,733
-45,403
-42,754
-39,812
-36,604
-33,171
-29,557
-25,808
-21,972
-18,082
-14,164
-10,238
-6,317
-2,407
1,491
5,388
9,294
13,216
17,157
21,118
25,1
29,104
33,134
37,193
41,282
45,401
49,547
53,72
57,915
62,127
66,348
70,571
74,785
78,982
83,154
87,295
91,396
95,45
99,45
103,387
107,255
111,046
114,751
118,363
121,872
125,271
128,551
131,704
134,721
137,595
140,317
142,881
145,279
147,503
149,549
151,408
153,076
154,547
155,817
156,881
157,736
158,378
158,806
159,017
159,012
158,791
158,354
157,705
156,845
155,778
154,508
153,038
151,374
149,52
147,483
145,27
142,886
140,34
137,639
134,792
131,808
128,696
125,463
122,12
118,674
115,135
111,512
107,814
104,05
100,23
96,364
92,461
88,533
84,588
80,637
76,689
72,751
68,833
64,941
61,08
57,257
53,476
49,743
46,063
42,444
38,891
35,412
32,015
28,704
25,486
22,365
19,345
16,428
13,616
10,91
8,313
5,832
3,474
1,246
-0,851
-2,816
-4,656
-6,377
-7,994
-9,522
-10,976
-12,369
-13,706
-14,987
-16,2
-17,335
-18,378
-19,323
-20,175
-20,933
-21,598
-22,165
-22,624
-22,957
-23,139
-23,137
-22,913
-22,441
-21,71
-20,728
-19,525
-18,139
-16,622
-15,014
-13,34
-11,627
-9,897
-8,175
-6,485
-4,865
-3,357
-2,014
-0,903
-0,074
0,44
0,632
0,524
0,154
-0,419
-1,149
-1,998
-2,936
-3,94
-4,991
-6,07
-7,156
-8,224
-9,238
-10,148
-10,912
-11,502
-11,91
-12,146
-12,24
-12,236
-12,171
-12,077
-11,981
-11,899
-11,841
-11,816
-11,826
-11,874
-11,971
-12,134
-12,381
-12,726
-13,173
-13,718
-14,349
-15,047
-15,793
-16,571
-17,367
-18,173
-18,982
-19,793
-20,606
-21,425
-22,249
-23,075
-23,898
-24,712
-25,511
-26,293
-27,053
-27,791
-28,505
-29,192
-29,851
-30,476
-31,065
-31,61
-32,106
-32,546
-32,924
-33,236
-33,479
-33,651
-33,752
-33,78
-33,734
-33,614
-33,42
-33,152
-32,81
-32,395
-31,909
-31,355
-30,737
-30,059
-29,325
-28,538
-27,7
-26,811
-25,871
-24,884
-23,853
-22,786
-21,694
-20,593
-19,501
-18,435
-17,411
-16,44
-15,529
-14,684
-13,912
-13,215
-12,594
-12,055
-11,607
-11,254
-10,995
-10,819
-10,694
-10,582
-10,432
-10,196
-9,825
-9,282
-8,53
-7,545
-6,308
-4,809
-3,06
-1,067
1,163
3,606
6,228
8,978
11,783
14,549
17,163
19,485
21,373
22,686
23,307
23,116
21,932
19,656
16,341
12,167
7,531
2,894
-1,396
-4,937
-7,186
-7,855
-7,052
-5,321
-3,922
-4,237
-7,255
-13,9
-24,981
-40,569
-59,809
-80,766
-100,109
-114,177
-119,627
-113,122
-91,658
-53,108
1,781
69,318
144,975
223,154
302,028
383,779
465,258
541,395
602,029
628,811
612,264
549,211
443,738
315,094
183,18
67,908
-14,443
-61,333
-78,417
-78,663
-74,844
-72,045
-70,38
-65,202
-53,774
-38,626
-23,427
-12,311
-7,435
-8,043
-12,64
-19,664
-27,485
-34,475
-39,647
-42,578
-43,245
-42,208
-40,053
-37,19
-34,209
-31,769
-30,218
-29,72
-30,248
-31,527
-33,36
-35,614
-38,101
-40,652
-43,104
-45,276
-47,04
-48,3
-48,975
-49,022
-48,412
-47,125
-45,181
-42,621
-39,516
-35,98
-32,104
-27,965
-23,646
-19,218
-14,786
-10,488
-6,441
-2,747
0,519
3,327
5,65
7,467
8,794
9,669
10,161
10,373
10,38
10,229
9,974
9,658
9,346
9,126
9,063
9,204
9,584
10,224
11,14
12,351
13,85
15,607
17,577
19,699
21,931
24,252
26,639
29,074
31,535
33,987
36,41
38,8
41,147
43,443
45,678
47,839
49,926
51,947
53,918
55,855
57,765
59,648
61,501
63,319
65,097
66,828
68,501
70,097
71,604
73,011
74,307
75,486
76,536
77,445
78,199
78,789
79,203
79,434
79,476
79,323
78,97
78,416
77,662
76,71
75,563
74,222
72,692
70,977
69,081
67,011
64,774
62,377
59,83
57,143
54,326
51,391
48,352
45,219
42,005
38,724
35,387
32,007
28,596
25,165
21,726
18,291
14,869
11,472
8,109
4,789
1,523
-1,682
-4,818
-7,878
-10,855
-13,745
-16,54
-19,237
-21,832
-24,322
-26,704
-28,976
-31,138
-33,189
-35,13
-36,962
-38,688
-40,31
-41,831
-43,255
-44,585
-45,824
-46,978
-48,05
-49,043
-49,962
-50,81
-51,591
-52,308
-52,965
-53,566
-54,114
-54,612
-55,063
-55,47
-55,838
-56,168
-56,463
-56,727
-56,963
-57,172
-57,358
-57,523
-57,668
-57,795
-57,905
-58
-58,078
-58,141
-58,189
-58,221
-58,236
-58,235
-58,216
-58,181
-58,127
-58,056
-57,967
-57,861
-57,737
-57,597
-57,441
-57,27
-57,086
-56,888
-56,679
-56,46
-56,231
-55,993
-55,747
-55,494
-55,234
-54,967
-54,694
-54,415
-54,13
-53,841
-53,548
-53,252
-52,954
-52,655
-52,357
-52,062
-51,771
-51,487
-51,21
-50,943
-50,687
-50,444
-50,217
-50,004
-49,809
-49,632
-49,473
-49,332
-49,211
-49,109
-49,026
-48,963
-48,92
-48,898
-48,896
-48,916
-48,96
-49,027
-49,12
-49,24
-49,389
-49,568
-49,779
-50,023
-50,301
-50,614
-50,962
-51,346
-51,766
-52,221
-52,712
-53,238
-53,797
-54,39
-55,016
-55,674
-56,363
-57,082
-57,832
-58,611
-59,418
-60,253
-61,116
-62,006
-62,921
-63,86
-64,823
-65,806
-66,807
-67,825
-68,856
-69,896
-70,941
-71,988
-73,034
-74,073
-75,104
-76,12
-77,12
-78,1
-79,057
-79,988
-80,889
-81,759
-82,594
-83,392
-84,148
-84,86
-85,525
-86,139
-86,699
-87,203
-87,647
-88,03
-88,349
-88,603
-88,789
-88,906
-88,949
-88,917
-88,807
-88,617
-88,345
-87,99
-87,551
-87,026
-86,418
-85,728
-84,955
-84,099
-83,153
-82,113
-80,984
-79,768
-78,474
-77,114
-75,699
-74,25
-72,793
-71,353
-69,953
-68,612
-67,338
-66,139
-65,028
-64,022
-63,144
-62,412
-61,822
-61,365
-61,026
-60,78
-60,593
-60,419
-60,179
-59,798
-59,217
-58,392
-57,304
-55,939
-54,27
-52,263
-49,886
-47,117
-43,967
-40,469
-36,653
-32,572
-28,296
-23,92
-19,591
-15,464
-11,661
-8,277
-5,382
-3,033
-1,309
-0,322
-0,186
-0,992
-2,803
-5,64
-9,493
-14,366
-20,251
-27,082
-34,754
-43,14
-52,085
-61,543
-71,566
-82,037
-92,7
-103,158
-112,748
-120,877
-127,158
-131,045
-131,958
-129,836
-124,977
-118,082
-110,597
-104,066
-99,528
-97,986
-100,447
-105,406
-110,632
-115,388
-116,666
-114,023
-107,703
-90,689
-58,186
-6,914
65,267
149,682
238,183
327,353
413,48
495,64
567,599
615,636
628,249
599,543
533,24
440,887
332,578
217,287
103,566
0,59
-79,49
-129,299
-150,564
-152,647
-147,543
-142,623
-138,804
-132,406
-121,455
-107,827
-94,679
-85,521
-81,627
-81,897
-84,916
-89,247
-93,32
-95,76
-95,781
-93,077
-87,887
-80,862
-72,577
-63,504
-54,236
-45,397
-37,354
-30,284
-24,19
-18,925
-14,43
-10,729
-7,804
-5,609
-4,109
-3,253
-2,995
-3,324
-4,2
-5,569
-7,421
-9,74
-12,498
-15,676
-19,225
-23,069
-27,116
-31,235
-35,26
-39,045
-42,471
-45,454
-47,956
-49,945
-51,382
-52,234
-52,436
-51,933
-50,708
-48,75
-46,062
-42,679
-38,653
-34,075
-29,104
-23,897
-18,578
-13,247
-7,955
-2,748
2,315
7,178
11,777
16,059
20
23,583
26,781
29,587
32,007
34,068
35,866
37,498
39,03
40,518
41,984
43,446
44,942
46,503
48,147
49,887
51,72
53,64
55,654
57,762
59,951
62,208
64,482
66,724
68,913
71,033
73,08
75,055
76,937
78,711
80,377
81,937
83,398
84,782
86,104
87,389
88,671
89,977
91,335
92,766
94,266
95,815
97,38
98,926
100,43
101,873
103,233
104,482
105,589
106,493
107,131
107,433
107,315
106,709
105,561
103,813
101,444
98,464
94,905
90,816
86,237
81,199
75,729
69,875
63,701
57,303
50,801
44,307
37,947
31,846
26,112
20,865
16,194
12,144
8,731
5,963
3,841
2,39
1,637
1,566
2,136
3,276
4,878
6,846
9,073
11,432
13,811
16,091
18,173
20,003
21,545
22,76
23,613
24,051
24,007
23,468
22,441
20,953
19,067
16,843
14,349
11,685
8,94
6,187
3,495
0,895
-1,593
-3,938
-6,108
-8,065
-9,757
-11,16
-12,268
-13,074
-13,601
-13,876
-13,934
-13,835
-13,634
-13,366
-13,061
-12,729
-12,375
-12,009
-11,643
-11,282
-10,946
-10,645
-10,385
-10,178
-10,021
-9,906
-9,821
-9,742
-9,644
-9,515
-9,346
-9,132
-8,875
-8,572
-8,224
-7,838
-7,416
-6,956
-6,461
-5,925
-5,349
-4,735
-4,084
-3,402
-2,693
-1,961
-1,206
-0,432
0,361
1,17
1,994
2,831
3,681
4,54
5,402
6,263
7,116
7,957
8,783
9,59
10,369
11,111
11,809
12,46
13,062
13,614
14,119
14,577
14,994
15,385
15,762
16,138
16,524
16,915
17,309
17,707
18,106
18,509
18,909
19,284
19,608
19,86
20,018
20,062
19,962
19,664
19,118
18,287
17,14
15,671
13,879
11,756
9,304
6,537
3,488
0,224
-3,173
-6,642
-10,122
-13,552
-16,858
-19,923
-22,636
-24,912
-26,674
-27,876
-28,479
-28,422
-27,667
-26,209
-24,069
-21,315
-18,042
-14,314
-10,198
-5,765
-1,101
3,658
8,369
12,924
17,222
21,18
24,717
27,72
30,092
31,773
32,72
32,94
32,46
31,291
29,44
26,929
23,8
20,131
16,021
11,548
6,777
1,779
-3,373
-8,572
-13,706
-18,671
-23,367
-27,712
-31,642
-35,086
-37,983
-40,279
-41,944
-42,968
-43,365
-43,144
-42,307
-40,859
-38,809
-36,186
-33,042
-29,459
-25,537
-21,382
-17,104
-12,796
-8,548
-4,445
-0,552
3,079
6,418
9,446
12,132
14,436
16,31
17,705
18,597
19,007
18,976
18,562
17,841
16,877
15,737
14,503
13,227
11,944
10,665
9,376
8,079
6,802
5,58
4,466
3,507
2,719
2,123
1,743
1,565
1,57
1,721
1,945
2,206
2,502
2,85
3,296
3,873
4,59
5,446
6,411
7,436
8,464
9,413
10,194
10,737
10,993
10,943
10,611
9,986
9,023
7,616
5,556
2,747
-0,785
-4,956
-9,475
-13,959
-18,052
-21,203
-22,703
-22,299
-20,116
-16,452
-12,462
-9,651
-9,265
-12,918
-21,083
-32,026
-43,872
-55,754
-69,268
-87,323
-109,509
-128,717
-129,977
-100,187
-36,035
56,757
161,44
264,65
364,8
459,96
549,225
625,002
668,593
668,792
623,707
538,952
428,287
304,32
176,871
58,627
-35,133
-94,156
-115,178
-106,15
-85,246
-65,477
-52,996
-47,245
-41,279
-33,06
-24,406
-17,483
-15,742
-19,572
-26,869
-36,097
-45,379
-53,01
-58,47
-61,531
-62,213
-61,131
-58,948
-56,159
-53,375
-51,199
-49,891
-49,557
-50,178
-51,532
-53,434
-55,739
-58,233
-60,709
-63,017
-65,028
-66,65
-67,821
-68,439
-68,415
-67,685
-66,208
-63,982
-61,038
-57,411
-53,17
-48,415
-43,266
-37,877
-32,402
-26,971
-21,701
-16,701
-12,075
-7,932
-4,374
-1,492
0,639
1,96
2,442
2,078
0,894
-1,043
-3,647
-6,799
-10,368
-14,242
-18,316
-22,496
-26,695
-30,817
-34,75
-38,374
-41,564
-44,198
-46,177
-47,428
-47,9
-47,568
-46,421
-44,482
-41,794
-38,402
-34,349
-29,662
-24,36
-18,482
-12,096
-5,304
1,775
9,021
16,331
23,605
30,749
37,665
44,253
50,448
56,21
61,505
66,304
70,551
74,178
77,142
79,437
81,088
82,138
82,629
82,594
82,081
81,157
79,903
78,416
76,757
74,964
73,074
71,123
69,166
67,272
65,488
63,831
62,31
60,92
59,664
58,55
57,564
56,672
55,829
54,982
54,099
53,168
52,177
51,115
49,963
48,697
47,311
45,81
44,198
42,483
40,666
38,748
36,74
34,668
32,558
30,439
28,332
26,246
24,192
22,182
20,223
18,324
16,485
14,702
12,974
11,304
9,692
8,14
6,649
5,211
3,824
2,482
1,181
-0,082
-1,309
-2,505
-3,671
-4,81
-5,92
-7,003
-8,058
-9,087
-10,091
-11,073
-12,034
-12,975
-13,898
-14,805
-15,696
-16,572
-17,432
-18,276
-19,102
-19,91
-20,699
-21,466
-22,212
-22,934
-23,631
-24,302
-24,945
-25,558
-26,14
-26,689
-27,202
-27,679
-28,117
-28,514
-28,869
-29,18
-29,447
-29,667
-29,841
-29,968
-30,047
-30,078
-30,061
-29,998
-29,888
-29,733
-29,535
-29,296
-29,019
-28,707
-28,364
-27,994
-27,6
-27,187
-26,758
-26,318
-25,87
-25,418
-24,967
-24,52
-24,08
-23,653
-23,241
-22,847
-22,476
-22,13
-21,811
-21,523
-21,268
-21,047
-20,862
-20,715
-20,605
-20,534
-20,502
-20,508
-20,551
-20,628
-20,739
-20,881
-21,049
-21,24
-21,452
-21,678
-21,917
-22,163
-22,412
-22,661
-22,905
-23,14
-23,363
-23,57
-23,758
-23,923
-24,062
-24,174
-24,256
-24,306
-24,322
-24,304
-24,25
-24,16
-24,034
-23,872
-23,674
-23,441
-23,174
-22,877
-22,55
-22,199
-21,826
-21,435
-21,031
-20,619
-20,203
-19,789
-19,381
-18,983
-18,602
-18,241
-17,906
-17,601
-17,329
-17,095
-16,903
-16,755
-16,653
-16,6
-16,597
-16,645
-16,745
-16,898
-17,104
-17,363
-17,674
-18,038
-18,453
-18,917
-19,429
-19,984
-20,58
-21,213
-21,878
-22,571
-23,286
-24,018
-24,763
-25,514
-26,268
-27,018
-27,76
-28,487
-29,194
-29,876
-30,529
-31,148
-31,729
-32,268
-32,763
-33,21
-33,609
-33,957
-34,251
-34,491
-34,673
-34,797
-34,861
-34,862
-34,799
-34,671
-34,48
-34,227
-33,914
-33,543
-33,118
-32,645
-32,129
-31,573
-30,982
-30,359
-29,706
-29,028
-28,332
-27,62
-26,899
-26,171
-25,446
-24,732
-24,037
-23,364
-22,712
-22,079
-21,464
-20,872
-20,312
-19,789
-19,313
-18,892
-18,546
-18,299
-18,173
-18,176
-18,305
-18,55
-18,906
-19,373
-19,956
-20,658
-21,468
-22,372
-23,352
-24,393
-25,471
-26,541
-27,538
-28,374
-28,975
-29,293
-29,301
-28,984
-28,318
-27,283
-25,862
-24,06
-21,907
-19,434
-16,687
-13,715
-10,592
-7,424
-4,334
-1,48
0,972
2,872
4,083
4,47
3,93
2,343
-0,487
-4,609
-9,908
-16,148
-22,824
-29,413
-35,532
-40,668
-44,168
-45,767
-45,625
-44,309
-43,221
-43,774
-46,888
-53,651
-64,976
-80,68
-99,589
-119,654
-137,343
-148,658
-150,107
-137,75
-107,756
-59,881
2,876
77,602
159,635
247,733
345,498
449,091
549,361
631,678
675,143
668,394
611,534
514,333
394,493
269,713
154,989
59,192
-12,18
-58,864
-87,423
-103,265
-112,304
-117,717
-117,274
-110,789
-99,694
-86,923
-77,163
-72,621
-73,323
-78,255
-85,419
-93,234
-100,284
-105,007
-106,58
-104,761
-99,732
-92,158
-82,762
-72,222
-61,364
-50,967
-41,498
-33,214
-26,197
-20,407
-15,865
-12,571
-10,443
-9,371
-9,245
-9,974
-11,498
-13,738
-16,564
-19,813
-23,321
-26,956
-30,625
-34,231
-37,668
-40,813
-43,55
-45,808
-47,557
-48,78
-49,476
-49,645
-49,298
-48,474
-47,233
-45,639
-43,751
-41,614
-39,264
-36,745
-34,115
-31,443
-28,789
-26,189
-23,663
-21,224
-18,885
-16,656
-14,537
-12,516
-10,573
-8,691
-6,858
-5,069
-3,316
-1,583
0,148
1,901
3,696
5,54
7,439
9,398
11,418
13,503
15,646
17,84
20,074
22,341
24,637
26,957
29,297
31,647
33,998
36,341
38,667
40,967
43,232
45,454
47,623
49,731
51,77
53,734
55,616
57,406
59,098
60,682
62,151
63,497
64,712
65,789
66,721
67,502
68,128
68,594
68,896
69,03
68,994
68,786
68,405
67,849
67,118
66,214
65,136
63,889
62,474
60,895
59,157
57,265
55,224
53,042
50,726
48,283
45,723
43,052
40,282
37,422
34,482
31,472
28,402
25,284
22,127
18,944
15,743
12,535
9,331
6,14
2,972
-0,163
-3,257
-6,3
-9,284
-12,201
-15,042
-17,8
-20,468
-23,04
-25,509
-27,871
-30,12
-32,253
-34,266
-36,156
-37,921
-39,559
-41,07
-42,454
-43,711
-44,843
-45,851
-46,739
-47,508
-48,163
-48,708
-49,145
-49,48
-49,717
-49,861
-49,917
-49,89
-49,785
-49,608
-49,364
-49,06
-48,7
-48,291
-47,837
-47,346
-46,822
-46,27
-45,697
-45,106
-44,503
-43,894
-43,281
-42,671
-42,065
-41,469
-40,884
-40,314
-39,76
-39,224
-38,707
-38,211
-37,736
-37,283
-36,851
-36,443
-36,056
-35,692
-35,35
-35,029
-34,73
-34,452
-34,194
-33,956
-33,737
-33,536
-33,353
-33,186
-33,036
-32,902
-32,782
-32,675
-32,581
-32,497
-32,423
-32,357
-32,298
-32,245
-32,196
-32,152
-32,111
-32,073
-32,037
-32,003
-31,971
-31,94
-31,91
-31,881
-31,853
-31,825
-31,796
-31,767
-31,737
-31,706
-31,672
-31,637
-31,598
-31,555
-31,507
-31,454
-31,395
-31,33
-31,258
-31,179
-31,094
-31,002
-30,906
-30,805
-30,701
-30,595
-30,489
-30,385
-30,283
-30,187
-30,096
-30,014
-29,942
-29,882
-29,836
-29,806
-29,794
-29,801
-29,83
-29,883
-29,96
-30,064
-30,196
-30,358
-30,551
-30,775
-31,033
-31,324
-31,649
-32,008
-32,4
-32,826
-33,283
-33,769
-34,283
-34,82
-35,378
-35,952
-36,537
-37,128
-37,719
-38,305
-38,878
-39,434
-39,964
-40,463
-40,922
-41,335
-41,696
-41,997
-42,232
-42,395
-42,481
-42,484
-42,399
-42,224
-41,956
-41,591
-41,128
-40,568
-39,909
-39,154
-38,304
-37,362
-36,332
-35,218
-34,026
-32,76
-31,427
-30,035
-28,591
-27,105
-25,586
-24,045
-22,493
-20,945
-19,414
-17,91
-16,444
-15,022
-13,656
-12,356
-11,138
-10,015
-8,995
-8,088
-7,303
-6,648
-6,128
-5,739
-5,457
-5,263
-5,138
-5,067
-5,045
-5,066
-5,114
-5,172
-5,219
-5,235
-5,213
-5,145
-5,011
-4,803
-4,521
-4,198
-3,921
-3,77
-3,817
-4,111
-4,663
-5,501
-6,675
-8,232
-10,24
-12,753
-15,764
-19,334
-23,571
-28,442
-33,835
-39,432
-44,626
-48,901
-51,837
-52,91
-51,822
-48,648
-43,633
-37,649
-32,038
-27,839
-26,171
-28,124
-33,824
-42,567
-53,149
-63,179
-69,62
-69,76
-60,217
-37,398
-0,924
46,809
103,521
165,285
231,979
308,492
392,377
476,062
546,452
583,318
576,406
526,797
441,049
332,087
212,111
90,368
-20,371
-104,56
-153,046
-164,455
-147,945
-121,963
-99,029
-83,898
-75,064
-65,706
-53,768
-41,168
-30,33
-24,415
-23,718
-26,389
-30,929
-35,57
-38,848
-40,297
-39,756
-37,378
-33,746
-29,399
-24,729
-20,193
-16,245
-13,099
-10,82
-9,358
-8,512
-8,128
-8,121
-8,375
-8,773
-9,234
-9,665
-9,996
-10,199
-10,259
-10,189
-10,034
-9,825
-9,589
-9,358
-9,143
-8,955
-8,789
-8,608
-8,382
-8,096
-7,746
-7,351
-6,936
-6,51
-6,069
-5,594
-5,042
-4,383
-3,593
-2,643
-1,522
-0,227
1,227
2,797
4,44
6,134
7,859
9,612
11,397
13,207
15,038
16,889
18,748
20,606
22,454
24,281
26,084
27,868
29,643
31,435
33,267
35,154
37,107
39,133
41,233
43,409
45,657
47,969
50,338
52,759
55,228
57,742
60,296
62,883
65,497
68,127
70,763
73,394
76,01
78,599
81,149
83,651
86,092
88,462
90,751
92,947
95,04
97,018
98,87
100,584
102,141
103,53
104,739
105,76
106,588
107,22
107,656
107,9
107,965
107,863
107,605
107,202
106,658
105,976
105,16
104,21
103,132
101,92
100,56
99,032
97,31
95,369
93,184
90,721
87,941
84,806
81,284
77,355
73,01
68,245
63,066
57,485
51,517
45,205
38,613
31,825
24,941
18,061
11,282
4,704
-1,567
-7,436
-12,818
-17,641
-21,856
-25,414
-28,276
-30,412
-31,798
-32,45
-32,415
-31,773
-30,635
-29,116
-27,332
-25,393
-23,406
-21,466
-19,653
-18,033
-16,656
-15,572
-14,831
-14,482
-14,575
-15,126
-16,124
-17,521
-19,24
-21,192
-23,285
-25,433
-27,563
-29,614
-31,54
-33,309
-34,901
-36,292
-37,458
-38,365
-38,972
-39,257
-39,21
-38,847
-38,205
-37,33
-36,279
-35,103
-33,844
-32,537
-31,203
-29,856
-28,501
-27,145
-25,793
-24,461
-23,172
-21,945
-20,796
-19,734
-18,758
-17,861
-17,03
-16,253
-15,519
-14,824
-14,164
-13,543
-12,967
-12,442
-11,976
-11,576
-11,24
-10,97
-10,761
-10,611
-10,519
-10,485
-10,508
-10,589
-10,729
-10,927
-11,182
-11,491
-11,85
-12,254
-12,696
-13,171
-13,674
-14,198
-14,739
-15,29
-15,847
-16,403
-16,955
-17,498
-18,025
-18,533
-19,017
-19,477
-19,91
-20,318
-20,699
-21,051
-21,376
-21,673
-21,943
-22,189
-22,408
-22,604
-22,778
-22,939
-23,096
-23,257
-23,42
-23,585
-23,743
-23,89
-24,025
-24,14
-24,225
-24,276
-24,294
-24,287
-24,278
-24,28
-24,297
-24,324
-24,349
-24,369
-24,391
-24,427
-24,489
-24,588
-24,734
-24,949
-25,267
-25,702
-26,25
-26,885
-27,552
-28,212
-28,848
-29,443
-29,997
-30,496
-30,915
-31,234
-31,44
-31,511
-31,429
-31,156
-30,63
-29,824
-28,74
-27,407
-25,89
-24,234
-22,466
-20,615
-18,704
-16,759
-14,816
-12,896
-11,006
-9,165
-7,398
-5,746
-4,276
-3,023
-1,996
-1,187
-0,562
-0,099
0,209
0,383
0,451
0,438
0,368
0,248
0,068
-0,169
-0,452
-0,757
-1,043
-1,282
-1,469
-1,597
-1,668
-1,685
-1,642
-1,557
-1,491
-1,498
-1,628
-1,909
-2,321
-2,867
-3,58
-4,503
-5,706
-7,235
-9,092
-11,331
-14,077
-17,367
-21,165
-25,255
-29,132
-32,363
-34,635
-35,529
-34,622
-31,775
-27,093
-21,175
-15,405
-10,943
-8,619
-9,799
-15,464
-25,561
-39,821
-55,617
-68,701
-77,143
-78,207
-70,517
-54,787
-27,865
11,769
66,106
139,201
230,058
336,171
448,54
550,684
625,923
657,812
639,903
575,116
471,272
344,386
208,265
78,362
-26,159
-96,993
-130,658
-133,137
-123,201
-111,888
-104,652
-102,213
-96,419
-84,863
-70,501
-56,05
-46,101
-42,42
-43,345
-47,322
-52,807
-58,082
-61,918
-63,669
-63,012
-60,174
-55,836
-50,612
-44,986
-39,558
-34,891
-31,269
-28,829
-27,513
-27,095
-27,411
-28,334
-29,704
-31,373
-33,219
-35,13
-37,011
-38,792
-40,382
-41,701
-42,703
-43,354
-43,646
-43,581
-43,175
-42,454
-41,453
-40,211
-38,76
-37,134
-35,366
-33,495
-31,569
-29,633
-27,732
-25,896
-24,144
-22,49
-20,936
-19,48
-18,115
-16,826
-15,599
-14,42
-13,283
-12,179
-11,103
-10,046
-8,996
-7,943
-6,874
-5,778
-4,645
-3,468
-2,238
-0,952
0,393
1,797
3,257
4,773
6,349
7,987
9,694
11,474
13,329
15,257
17,253
19,308
21,405
23,529
25,658
27,778
29,875
31,944
33,985
36
37,996
39,968
41,907
43,804
45,653
47,451
49,2
50,909
52,592
54,267
55,956
57,68
59,447
61,251
63,073
64,88
66,632
68,302
69,871
71,317
72,616
73,73
74,62
75,245
75,566
75,543
75,124
74,261
72,921
71,093
68,781
66,01
62,822
59,233
55,263
50,949
46,333
41,482
36,473
31,368
26,226
21,105
16,073
11,2
6,547
2,152
-1,958
-5,768
-9,273
-12,44
-15,247
-17,697
-19,805
-21,612
-23,178
-24,539
-25,723
-26,764
-27,693
-28,548
-29,363
-30,152
-30,926
-31,697
-32,478
-33,306
-34,209
-35,193
-36,254
-37,368
-38,497
-39,621
-40,73
-41,802
-42,828
-43,796
-44,694
-45,527
-46,303
-47,02
-47,673
-48,245
-48,721
-49,098
-49,38
-49,576
-49,703
-49,771
-49,788
-49,764
-49,707
-49,619
-49,504
-49,356
-49,166
-48,934
-48,657
-48,34
-47,984
-47,591
-47,16
-46,688
-46,174
-45,617
-45,015
-44,364
-43,665
-42,917
-42,123
-41,288
-40,416
-39,513
-38,584
-37,635
-36,67
-35,695
-34,715
-33,734
-32,756
-31,787
-30,832
-29,895
-28,982
-28,097
-27,245
-26,429
-25,652
-24,917
-24,228
-23,585
-22,99
-22,445
-21,951
-21,509
-21,119
-20,781
-20,494
-20,257
-20,069
-19,927
-19,829
-19,772
-19,751
-19,765
-19,808
-19,877
-19,968
-20,077
-20,2
-20,332
-20,471
-20,611
-20,751
-20,887
-21,016
-21,137
-21,249
-21,349
-21,439
-21,518
-21,586
-21,643
-21,689
-21,726
-21,753
-21,772
-21,782
-21,785
-21,782
-21,773
-21,762
-21,748
-21,734
-21,723
-21,715
-21,714
-21,721
-21,735
-21,757
-21,785
-21,819
-21,858
-21,898
-21,938
-21,973
-22,002
-22,02
-22,026
-22,011
-21,967
-21,882
-21,746
-21,552
-21,298
-20,982
-20,606
-20,177
-19,705
-19,209
-18,707
-18,211
-17,731
-17,269
-16,826
-16,411
-16,032
-15,703
-15,435
-15,227
-15,08
-14,984
-14,921
-14,862
-14,757
-14,538
-14,142
-13,514
-12,62
-11,444
-9,977
-8,21
-6,142
-3,772
-1,107
1,84
5,054
8,512
12,17
15,965
19,795
23,526
27,025
30,174
32,879
35,084
36,747
37,828
38,303
38,149
37,341
35,881
33,748
30,907
27,348
23,079
18,144
12,693
6,883
0,702
-5,862
-12,857
-20,383
-28,326
-36,591
-45,285
-54,367
-63,376
-71,742
-78,69
-83,474
-86,054
-86,377
-84,181
-79,734
-73,924
-68,04
-63,878
-62,876
-65,297
-71,494
-81,758
-95,269
-110,315
-124,12
-132,952
-133,791
-124,561
-102,678
-65,896
-13,228
53,591
129,553
209,33
287,92
364,807
442,917
519,129
588,537
640,688
657,168
630,665
559,315
445,828
309,582
167,508
36,183
-63,185
-124,731
-149,723
-145,885
-131,879
-118,612
-110,253
-106,621
-101,204
-92,328
-82,196
-73,164
-68,835
-69,887
-74,439
-80,947
-87,461
-92,193
-94,552
-94,282
-91,407
-86,531
-80,336
-73,412
-66,477
-60,259
-55,127
-51,241
-48,617
-47,061
-46,414
-46,56
-47,318
-48,502
-49,969
-51,597
-53,28
-54,948
-56,495
-57,797
-58,766
-59,343
-59,498
-59,233
-58,557
-57,487
-56,052
-54,299
-52,268
-50,005
-47,551
-44,946
-42,238
-39,481
-36,727
-34,03
-31,429
-28,951
-26,61
-24,411
-22,35
-20,419
-18,605
-16,89
-15,26
-13,703
-12,208
-10,77
-9,377
-8,02
-6,69
-5,374
-4,062
-2,745
-1,415
-0,063
1,316
2,728
4,178
5,67
7,206
8,788
10,417
12,099
13,839
15,646
17,526
19,479
21,503
23,594
25,746
27,948
30,18
32,416
34,627
36,792
38,901
40,951
42,938
44,858
46,705
48,475
50,175
51,815
53,4
54,931
56,411
57,852
59,285
60,76
62,318
63,978
65,743
67,598
69,526
71,506
73,504
75,472
77,342
79,052
80,557
81,826
82,826
83,516
83,828
83,683
83,014
81,784
79,979
77,599
74,652
71,161
67,173
62,763
58,029
53,058
47,91
42,637
37,284
31,911
26,593
21,412
16,433
11,707
7,271
3,152
-0,622
-4,042
-7,118
-9,888
-12,402
-14,7
-16,801
-18,715
-20,45
-22,02
-23,447
-24,755
-25,956
-27,058
-28,072
-29,006
-29,874
-30,68
-31,418
-32,071
-32,614
-33,036
-33,337
-33,523
-33,608
-33,597
-33,492
-33,297
-33,02
-32,674
-32,263
-31,791
-31,254
-30,656
-30,014
-29,356
-28,711
-28,1
-27,532
-27,005
-26,519
-26,083
-25,712
-25,423
-25,225
-25,124
-25,133
-25,278
-25,588
-26,078
-26,731
-27,511
-28,38
-29,312
-30,298
-31,335
-32,413
-33,515
-34,614
-35,688
-36,724
-37,704
-38,602
-39,369
-39,953
-40,326
-40,498
-40,506
-40,387
-40,159
-39,829
-39,398
-38,878
-38,286
-37,635
-36,93
-36,168
-35,354
-34,509
-33,671
-32,88
-32,157
-31,494
-30,862
-30,238
-29,61
-28,976
-28,33
-27,662
-26,961
-26,227
-25,473
-24,712
-23,951
-23,186
-22,406
-21,598
-20,76
-19,903
-19,044
-18,198
-17,374
-16,581
-15,83
-15,135
-14,507
-13,949
-13,459
-13,034
-12,672
-12,379
-12,16
-12,019
-11,955
-11,968
-12,054
-12,211
-12,437
-12,727
-13,077
-13,479
-13,929
-14,422
-14,958
-15,533
-16,142
-16,78
-17,441
-18,117
-18,803
-19,491
-20,173
-20,839
-21,483
-22,097
-22,675
-23,211
-23,695
-24,117
-24,464
-24,725
-24,895
-24,969
-24,948
-24,834
-24,636
-24,366
-24,043
-23,687
-23,312
-22,931
-22,55
-22,174
-21,814
-21,482
-21,198
-20,974
-20,814
-20,715
-20,664
-20,64
-20,61
-20,526
-20,325
-19,948
-19,34
-18,467
-17,314
-15,869
-14,123
-12,061
-9,663
-6,917
-3,827
-0,409
3,302
7,255
11,386
15,597
19,764
23,77
27,496
30,856
33,798
36,268
38,215
39,569
40,239
40,144
39,225
37,448
34,793
31,246
26,792
21,449
15,274
8,34
0,709
-7,663
-16,789
-26,548
-36,676
-46,688
-56,035
-64,302
-71,067
-75,773
-78,081
-78,051
-76,208
-73,777
-72,129
-72,199
-74,79
-80,707
-90,236
-102,813
-116,794
-129,238
-136,829
-136,627
-125,885
-101,838
-61,961
-6,408
61,658
138,351
218,638
301,263
389,323
479,981
566,34
636,486
672,434
665,804
617,807
534,112
426,207
304,249
176,384
55,742
-40,882
-102,227
-124,634
-116,427
-96,894
-79,793
-71,406
-70,894
-70,562
-67,596
-63,391
-60,053
-61,115
-67,07
-75,879
-85,909
-95,205
-102,097
-106,078
-106,927
-104,696
-99,999
-93,501
-85,77
-77,485
-69,303
-61,597
-54,572
-48,31
-42,716
-37,721
-33,301
-29,403
-25,997
-23,103
-20,756
-18,987
-17,819
-17,232
-17,169
-17,576
-18,389
-19,54
-20,971
-22,625
-24,451
-26,412
-28,466
-30,554
-32,603
-34,517
-36,204
-37,597
-38,654
-39,349
-39,67
-39,61
-39,174
-38,384
-37,265
-35,842
-34,134
-32,157
-29,933
-27,5
-24,909
-22,226
-19,511
-16,808
-14,148
-11,556
-9,047
-6,634
-4,322
-2,099
0,046
2,126
4,146
6,11
8,026
9,908
11,776
13,652
15,554
17,492
19,472
21,498
23,57
25,688
27,845
30,029
32,229
34,435
36,639
38,835
41,014
43,167
45,281
47,348
49,356
51,298
53,165
54,947
56,636
58,225
59,707
61,076
62,325
63,448
64,437
65,285
65,985
66,532
66,921
67,146
67,205
67,095
66,814
66,362
65,74
64,948
63,987
62,862
61,574
60,128
58,53
56,784
54,896
52,874
50,725
48,457
46,077
43,594
41,019
38,359
35,627
32,831
29,984
27,096
24,179
21,245
18,304
15,369
12,45
9,559
6,705
3,897
1,146
-1,541
-4,156
-6,693
-9,144
-11,506
-13,772
-15,941
-18,007
-19,97
-21,827
-23,578
-25,222
-26,759
-28,19
-29,515
-30,737
-31,857
-32,878
-33,803
-34,636
-35,38
-36,041
-36,622
-37,13
-37,568
-37,942
-38,258
-38,519
-38,73
-38,897
-39,022
-39,111
-39,166
-39,19
-39,188
-39,161
-39,111
-39,039
-38,948
-38,836
-38,705
-38,554
-38,382
-38,189
-37,974
-37,738
-37,48
-37,2
-36,896
-36,569
-36,218
-35,842
-35,44
-35,01
-34,552
-34,067
-33,552
-33,011
-32,443
-31,851
-31,236
-30,6
-29,946
-29,277
-28,594
-27,901
-27,199
-26,492
-25,783
-25,074
-24,371
-23,678
-23
-22,343
-21,713
-21,115
-20,555
-20,035
-19,561
-19,133
-18,753
-18,421
-18,139
-17,909
-17,732
-17,611
-17,55
-17,548
-17,608
-17,73
-17,912
-18,149
-18,43
-18,745
-19,089
-19,462
-19,868
-20,317
-20,814
-21,365
-21,982
-22,672
-23,434
-24,262
-25,134
-26,022
-26,911
-27,793
-28,671
-29,553
-30,429
-31,281
-32,091
-32,826
-33,46
-33,954
-34,247
-34,284
-34,033
-33,488
-32,68
-31,66
-30,462
-29,11
-27,622
-26,011
-24,316
-22,58
-20,831
-19,104
-17,444
-15,915
-14,624
-13,685
-13,172
-13,121
-13,52
-14,322
-15,5
-17,023
-18,847
-20,918
-23,16
-25,501
-27,903
-30,338
-32,763
-35,102
-37,233
-39,014
-40,332
-41,109
-41,302
-40,885
-39,83
-38,124
-35,787
-32,874
-29,46
-25,604
-21,327
-16,623
-11,502
-6,003
-0,204
5,788
11,87
17,95
23,935
29,725
35,212
40,303
44,927
49,062
52,696
55,776
58,221
59,907
60,724
60,61
59,511
57,373
54,157
49,824
44,346
37,782
30,16
21,433
11,691
1,111
-9,999
-21,038
-31,422
-40,726
-48,383
-53,766
-56,725
-57,423
-56,53
-55,516
-55,558
-57,372
-61,922
-69,92
-81,012
-94,135
-107,051
-116,133
-118,358
-111,139
-91,251
-56,14
-4,828
61,122
137,036
217,437
298,383
379,501
461,713
541,562
610,239
654,002
658,871
618,847
540,458
437,741
326,036
220,909
128,313
49,742
-10,578
-55,48
-86,282
-103,152
-111,391
-111,286
-102,998
-89,474
-72,666
-56,855
-45,571
-39,514
-38,512
-41,328
-46,633
-53,472
-60,375
-65,797
-68,864
-69,272
-67,312
-63,623
-58,732
-53,128
-47,424
-42,207
-37,811
-34,343
-31,698
-29,664
-28,086
-26,844
-25,807
-24,843
-23,859
-22,812
-21,696
-20,52
-19,271
-17,919
-16,448
-14,877
-13,242
-11,578
-9,933
-8,351
-6,884
-5,587
-4,498
-3,64
-3,007
-2,576
-2,317
-2,201
-2,209
-2,319
-2,507
-2,736
-2,978
-3,219
-3,432
-3,577
-3,596
-3,433
-3,052
-2,438
-1,603
-0,564
0,66
2,045
3,576
5,234
7,001
8,874
10,87
13,017
15,325
17,782
20,341
22,959
25,614
28,295
31,004
33,736
36,486
39,256
42,052
44,882
47,744
50,62
53,471
56,252
58,936
61,518
64,015
66,442
68,801
71,089
73,301
75,44
77,507
79,494
81,381
83,15
84,79
86,299
87,687
88,965
90,134
91,184
92,1
92,868
93,479
93,925
94,197
94,284
94,178
93,877
93,388
92,719
91,875
90,857
89,667
88,307
86,782
85,101
83,271
81,301
79,199
76,974
74,637
72,2
69,671
67,06
64,373
61,616
58,798
55,926
53,008
50,05
47,059
44,041
41,004
37,953
34,896
31,838
28,783
25,736
22,703
19,686
16,69
13,717
10,769
7,85
4,96
2,102
-0,725
-3,518
-6,278
-9,003
-11,693
-14,347
-16,964
-19,545
-22,087
-24,591
-27,056
-29,48
-31,863
-34,202
-36,497
-38,745
-40,944
-43,093
-45,188
-47,228
-49,21
-51,131
-52,99
-54,783
-56,507
-58,161
-59,741
-61,244
-62,667
-64,007
-65,262
-66,43
-67,507
-68,493
-69,386
-70,185
-70,889
-71,498
-72,012
-72,432
-72,76
-72,997
-73,145
-73,209
-73,19
-73,094
-72,925
-72,687
-72,388
-72,032
-71,626
-71,176
-70,69
-70,173
-69,633
-69,077
-68,511
-67,945
-67,383
-66,834
-66,304
-65,8
-65,327
-64,892
-64,498
-64,151
-63,854
-63,611
-63,423
-63,294
-63,224
-63,213
-63,26
-63,365
-63,526
-63,738
-63,998
-64,3
-64,64
-65,01
-65,404
-65,814
-66,233
-66,652
-67,062
-67,455
-67,823
-68,155
-68,444
-68,68
-68,856
-68,963
-68,994
-68,943
-68,805
-68,576
-68,252
-67,831
-67,313
-66,697
-65,984
-65,177
-64,277
-63,287
-62,211
-61,054
-59,822
-58,52
-57,159
-55,746
-54,291
-52,807
-51,308
-49,807
-48,316
-46,845
-45,403
-44,001
-42,653
-41,375
-40,182
-39,085
-38,095
-37,227
-36,489
-35,889
-35,424
-35,074
-34,816
-34,629
-34,497
-34,407
-34,348
-34,3
-34,243
-34,155
-34,018
-33,827
-33,572
-33,239
-32,82
-32,319
-31,774
-31,277
-30,918
-30,786
-30,952
-31,453
-32,342
-33,706
-35,615
-38,144
-41,355
-45,239
-49,842
-55,292
-61,577
-68,57
-75,958
-83,114
-89,447
-94,549
-97,888
-98,948
-97,607
-93,974
-88,733
-83,317
-78,962
-76,645
-77,417
-81,86
-89,644
-99,77
-110,062
-117,271
-118,217
-109,683
-88,428
-51,81
-0,164
63,31
134,963
209,657
286,41
368,363
451,806
530,438
592,375
617,305
596,759
529,156
417,773
282,093
138,459
3,573
-100,802
-168,174
-198,087
-197,302
-184,887
-171,72
-162,037
-156,336
-147,757
-134,237
-118,726
-103,99
-93,905
-89,774
-90,029
-93,06
-97,181
-100,84
-102,923
-102,84
-100,489
-96,142
-90,392
-83,825
-76,878
-70,079
-63,95
-58,739
-54,513
-51,2
-48,587
-46,524
-44,943
-43,724
-42,748
-41,925
-41,167
-40,428
-39,714
-39,025
-38,363
-37,737
-37,142
-36,581
-36,077
-35,637
-35,262
-34,936
-34,615
-34,267
-33,882
-33,462
-33,017
-32,549
-32,038
-31,455
-30,781
-29,995
-29,087
-28,043
-26,843
-25,477
-23,953
-22,296
-20,554
-18,758
-16,924
-15,058
-13,163
-11,245
-9,316
-7,388
-5,464
-3,541
-1,62
0,296
2,203
4,103
6,006
7,934
9,913
11,962
14,09
16,301
18,599
20,984
23,456
26,013
28,641
31,33
34,072
36,859
39,683
42,533
45,396
48,256
51,094
53,896
56,646
59,331
61,936
64,446
66,849
69,133
71,289
73,307
75,175
76,883
78,421
79,779
80,949
81,923
82,693
83,254
83,601
83,73
83,64
83,329
82,797
82,047
81,08
79,9
78,513
76,922
75,137
73,163
71,01
68,687
66,204
63,572
60,803
57,909
54,901
51,794
48,599
45,33
42
38,622
35,208
31,772
28,326
24,882
21,453
18,049
14,682
11,363
8,101
4,906
1,786
-1,25
-4,196
-7,045
-9,791
-12,429
-14,954
-17,364
-19,654
-21,823
-23,868
-25,788
-27,583
-29,254
-30,8
-32,223
-33,526
-34,709
-35,775
-36,728
-37,569
-38,303
-38,932
-39,459
-39,89
-40,226
-40,472
-40,632
-40,709
-40,708
-40,632
-40,485
-40,271
-39,993
-39,656
-39,263
-38,818
-38,326
-37,79
-37,215
-36,604
-35,961
-35,289
-34,593
-33,875
-33,138
-32,387
-31,624
-30,852
-30,075
-29,295
-28,517
-27,742
-26,974
-26,217
-25,473
-24,745
-24,037
-23,351
-22,689
-22,054
-21,449
-20,875
-20,334
-19,828
-19,358
-18,924
-18,526
-18,161
-17,828
-17,526
-17,251
-17,002
-16,774
-16,566
-16,374
-16,198
-16,034
-15,878
-15,728
-15,579
-15,424
-15,26
-15,079
-14,876
-14,643
-14,374
-14,062
-13,705
-13,295
-12,83
-12,302
-11,704
-11,031
-10,284
-9,463
-8,574
-7,623
-6,62
-5,578
-4,516
-3,452
-2,403
-1,382
-0,4
0,537
1,421
2,243
2,992
3,662
4,264
4,812
5,325
5,828
6,34
6,885
7,504
8,229
9,087
10,095
11,258
12,575
14,046
15,679
17,483
19,452
21,555
23,747
25,972
28,177
30,321
32,357
34,218
35,842
37,18
38,192
38,86
39,169
39,087
38,55
37,484
35,834
33,574
30,721
27,323
23,407
18,973
14,027
8,583
2,661
-3,673
-10,426
-17,681
-25,383
-33,356
-41,218
-48,305
-54,029
-57,982
-59,682
-58,72
-55,132
-49,13
-41,543
-33,987
-27,829
-24,262
-24,471
-28,858
-36,785
-47,224
-57,964
-65,341
-65,927
-55,997
-31,498
8,381
61,356
125,502
197,01
274,722
362,125
455,588
546,99
623,108
663,691
658,412
606,299
512,712
392,694
259,875
127,828
13,443
-71,756
-121,321
-137,649
-134,706
-125,377
-117,481
-112,989
-106,356
-94,63
-79,756
-64,829
-54,283
-50,137
-51,176
-55,696
-61,972
-68,23
-73,075
-75,718
-75,734
-73,24
-68,833
-63,11
-56,598
-49,941
-43,771
-38,424
-34,04
-30,562
-27,763
-25,488
-23,633
-22,071
-20,678
-19,382
-18,162
-17,034
-16,06
-15,259
-14,607
-14,092
-13,709
-13,467
-13,396
-13,523
-13,864
-14,442
-15,275
-16,362
-17,699
-19,26
-20,991
-22,827
-24,681
-26,469
-28,133
-29,624
-30,898
-31,922
-32,661
-33,084
-33,174
-32,904
-32,259
-31,236
-29,833
-28,057
-25,935
-23,5
-20,81
-17,943
-14,955
-11,891
-8,786
-5,658
-2,523
0,6
3,705
6,783
9,826
12,833
15,793
18,692
21,52
24,267
26,944
29,58
32,195
34,8
37,4
39,988
42,557
45,107
47,627
50,099
52,51
54,842
57,087
59,248
61,322
63,31
65,203
66,983
68,634
70,145
71,506
72,711
73,753
74,621
75,312
75,829
76,173
76,349
76,355
76,188
75,845
75,327
74,634
73,77
72,737
71,54
70,182
68,67
67,01
65,21
63,276
61,213
59,026
56,721
54,304
51,783
49,165
46,455
43,663
40,795
37,861
34,868
31,825
28,741
25,622
22,477
19,314
16,141
12,966
9,796
6,639
3,504
0,397
-2,672
-5,697
-8,671
-11,586
-14,435
-17,213
-19,912
-22,528
-25,055
-27,489
-29,823
-32,054
-34,177
-36,189
-38,086
-39,866
-41,527
-43,066
-44,484
-45,78
-46,954
-48,007
-48,939
-49,754
-50,451
-51,034
-51,505
-51,867
-52,123
-52,276
-52,331
-52,292
-52,162
-51,947
-51,65
-51,277
-50,833
-50,322
-49,75
-49,122
-48,443
-47,72
-46,958
-46,163
-45,34
-44,496
-43,636
-42,764
-41,886
-41,007
-40,13
-39,259
-38,398
-37,551
-36,72
-35,909
-35,12
-34,357
-33,622
-32,917
-32,244
-31,606
-31,004
-30,44
-29,914
-29,43
-28,987
-28,588
-28,232
-27,921
-27,655
-27,433
-27,253
-27,113
-27,011
-26,943
-26,907
-26,899
-26,917
-26,956
-27,016
-27,094
-27,189
-27,298
-27,417
-27,542
-27,669
-27,793
-27,908
-28,01
-28,092
-28,149
-28,175
-28,17
-28,13
-28,053
-27,934
-27,764
-27,539
-27,26
-26,929
-26,549
-26,128
-25,669
-25,184
-24,694
-24,217
-23,77
-23,361
-22,987
-22,649
-22,35
-22,093
-21,886
-21,72
-21,574
-21,429
-21,274
-21,093
-20,875
-20,592
-20,197
-19,654
-18,938
-18,043
-16,981
-15,757
-14,358
-12,785
-11,044
-9,162
-7,194
-5,179
-3,138
-1,095
0,93
2,897
4,731
6,386
7,836
9,062
10,072
10,835
11,272
11,327
10,959
10,155
8,965
7,393
5,383
2,914
-0,038
-3,48
-7,338
-11,638
-16,532
-22,015
-27,946
-34,068
-39,868
-44,873
-48,811
-51,216
-51,532
-49,668
-45,867
-40,737
-35,405
-31,064
-28,786
-29,59
-34,473
-42,305
-49,882
-55,574
-57,925
-57,097
-56,137
-50,932
-32,462
5,295
68,338
153,097
245,344
337,478
425,701
505,551
578,071
635,355
658,132
637,097
567,165
450,624
310,181
166,075
37,117
-55,014
-106,942
-122,79
-112,085
-94,146
-78,891
-69,11
-64,046
-57,344
-47,741
-37,848
-29,983
-27,244
-29,897
-35,838
-43,408
-50,732
-56,207
-59,326
-59,883
-57,98
-54,227
-49,294
-43,778
-38,345
-33,617
-29,9
-27,309
-25,829
-25,278
-25,508
-26,399
-27,788
-29,511
-31,444
-33,483
-35,536
-37,538
-39,393
-40,995
-42,27
-43,167
-43,663
-43,761
-43,47
-42,803
-41,785
-40,454
-38,848
-37,003
-34,959
-32,753
-30,429
-28,036
-25,623
-23,239
-20,918
-18,685
-16,553
-14,529
-12,612
-10,799
-9,083
-7,453
-5,899
-4,416
-2,996
-1,636
-0,329
0,936
2,167
3,372
4,56
5,737
6,909
8,078
9,249
10,423
11,602
12,786
13,978
15,179
16,393
17,622
18,869
20,135
21,422
22,731
24,063
25,416
26,789
28,18
29,586
31,005
32,431
33,86
35,288
36,708
38,114
39,499
40,857
42,178
43,457
44,684
45,851
46,951
47,975
48,916
49,767
50,52
51,169
51,708
52,131
52,434
52,612
52,661
52,578
52,361
52,008
51,518
50,89
50,125
49,225
48,191
47,025
45,733
44,317
42,782
41,134
39,379
37,524
35,575
33,541
31,429
29,248
27,006
24,712
22,375
20,003
17,606
15,191
12,768
10,343
7,925
5,521
3,137
0,78
-1,545
-3,832
-6,076
-8,273
-10,419
-12,511
-14,545
-16,52
-18,433
-20,282
-22,068
-23,788
-25,442
-27,032
-28,556
-30,017
-31,414
-32,749
-34,024
-35,24
-36,399
-37,504
-38,556
-39,557
-40,508
-41,413
-42,272
-43,088
-43,861
-44,593
-45,285
-45,937
-46,55
-47,124
-47,66
-48,157
-48,615
-49,034
-49,413
-49,752
-50,049
-50,304
-50,517
-50,686
-50,81
-50,888
-50,92
-50,906
-50,843
-50,733
-50,575
-50,37
-50,117
-49,819
-49,475
-49,088
-48,66
-48,193
-47,688
-47,148
-46,578
-45,979
-45,356
-44,712
-44,051
-43,377
-42,695
-42,009
-41,323
-40,643
-39,972
-39,315
-38,676
-38,062
-37,476
-36,922
-36,406
-35,932
-35,503
-35,124
-34,797
-34,526
-34,312
-34,156
-34,06
-34,024
-34,045
-34,122
-34,253
-34,435
-34,665
-34,94
-35,256
-35,609
-35,995
-36,411
-36,852
-37,311
-37,783
-38,26
-38,737
-39,207
-39,664
-40,099
-40,506
-40,878
-41,21
-41,495
-41,728
-41,897
-41,991
-42,004
-41,934
-41,783
-41,553
-41,251
-40,884
-40,466
-40,018
-39,559
-39,101
-38,653
-38,217
-37,801
-37,419
-37,087
-36,821
-36,624
-36,485
-36,393
-36,333
-36,28
-36,207
-36,064
-35,79
-35,344
-34,7
-33,847
-32,781
-31,485
-29,932
-28,098
-25,97
-23,558
-20,887
-17,983
-14,879
-11,627
-8,293
-4,973
-1,776
1,225
3,979
6,446
8,585
10,32
11,552
12,194
12,185
11,498
10,12
8,014
5,146
1,508
-2,896
-7,99
-13,728
-20,18
-27,332
-35,055
-43,092
-50,923
-57,997
-63,936
-68,298
-70,538
-70,47
-68,247
-64,412
-60,26
-57,084
-55,753
-57,25
-62,429
-71,268
-82,913
-95,709
-106,703
-112,61
-110,647
-97,551
-69,943
-27,227
28,405
94,382
166,292
242,983
328,392
420,563
512,838
592,781
640,458
644,187
602,927
522,71
417,123
299,488
180,147
71,06
-14,608
-68,99
-90,402
-86,325
-72,559
-59,977
-53,358
-51,877
-49,43
-44,392
-38,586
-34,079
-33,913
-38,381
-45,556
-53,994
-61,999
-68,06
-71,735
-72,852
-71,463
-68,154
-63,561
-58,221
-52,798
-47,918
-43,897
-40,886
-38,904
-37,798
-37,456
-37,792
-38,659
-39,913
-41,434
-43,119
-44,898
-46,711
-48,472
-50,078
-51,431
-52,458
-53,124
-53,418
-53,338
-52,891
-52,092
-50,966
-49,557
-47,903
-46,045
-44,021
-41,866
-39,624
-37,34
-35,059
-32,821
-30,658
-28,585
-26,608
-24,729
-22,944
-21,247
-19,627
-18,067
-16,557
-15,086
-13,644
-12,225
-10,819
-9,414
-8
-6,568
-5,108
-3,614
-2,082
-0,506
1,117
2,787
4,505
6,272
8,086
9,948
11,858
13,816
15,82
17,868
19,957
22,083
24,241
26,426
28,628
30,841
33,056
35,264
37,455
39,62
41,748
43,83
45,856
47,816
49,701
51,5
53,205
54,806
56,294
57,663
58,903
60,009
60,974
61,792
62,461
62,976
63,335
63,535
63,576
63,458
63,181
62,746
62,157
61,417
60,53
59,501
58,336
57,041
55,625
54,094
52,456
50,72
48,894
46,986
45,004
42,957
40,853
38,7
36,507
34,282
32,032
29,765
27,489
25,208
22,931
20,662
18,406
16,168
13,952
11,763
9,603
7,475
5,381
3,325
1,307
-0,672
-2,611
-4,509
-6,366
-8,183
-9,96
-11,697
-13,394
-15,052
-16,671
-18,252
-19,793
-21,297
-22,762
-24,19
-25,58
-26,932
-28,246
-29,523
-30,761
-31,961
-33,122
-34,243
-35,325
-36,365
-37,363
-38,319
-39,232
-40,1
-40,923
-41,7
-42,43
-43,111
-43,744
-44,327
-44,86
-45,341
-45,77
-46,148
-46,474
-46,749
-46,972
-47,147
-47,272
-47,35
-47,382
-47,369
-47,314
-47,218
-47,084
-46,914
-46,71
-46,474
-46,21
-45,918
-45,603
-45,266
-44,91
-44,536
-44,148
-43,747
-43,335
-42,914
-42,487
-42,055
-41,62
-41,184
-40,749
-40,316
-39,888
-39,465
-39,05
-38,642
-38,244
-37,857
-37,482
-37,119
-36,769
-36,432
-36,11
-35,801
-35,507
-35,227
-34,962
-34,711
-34,474
-34,252
-34,044
-33,851
-33,674
-33,511
-33,365
-33,236
-33,124
-33,03
-32,955
-32,899
-32,863
-32,847
-32,85
-32,873
-32,915
-32,975
-33,053
-33,144
-33,248
-33,361
-33,481
-33,607
-33,734
-33,861
-33,985
-34,105
-34,22
-34,326
-34,42
-34,499
-34,559
-34,596
-34,607
-34,587
-34,532
-34,436
-34,296
-34,109
-33,872
-33,58
-33,226
-32,8
-32,297
-31,72
-31,07
-30,355
-29,581
-28,76
-27,907
-27,046
-26,198
-25,376
-24,588
-23,838
-23,133
-22,486
-21,915
-21,436
-21,055
-20,762
-20,548
-20,397
-20,286
-20,181
-20,032
-19,779
-19,377
-18,802
-18,046
-17,113
-15,997
-14,681
-13,141
-11,364
-9,354
-7,126
-4,705
-2,117
0,591
3,35
6,069
8,645
10,999
13,088
14,891
16,392
17,555
18,312
18,572
18,261
17,335
15,766
13,526
10,588
6,945
2,632
-2,28
-7,714
-13,674
-20,263
-27,497
-35,307
-43,504
-51,668
-59,354
-66,133
-71,393
-74,466
-75,122
-73,38
-69,523
-64,715
-60,242
-57,323
-57,936
-62,49
-68,948
-75,853
-81,41
-86,415
-95,947
-110,055
-123,495
-125,53
-100,418
-40,98
50,495
166,254
293,588
421,309
540,264
636,797
695,672
709,35
675,958
604,214
511,002
404,835
292,549
181,355
77,26
-7,285
-62,634
-89,212
-95,323
-92,402
-88,922
-87,102
-83,311
-75,687
-66,033
-57,034
-52,277
-53,191
-58,478
-66,546
-75,87
-84,775
-91,862
-96,375
-97,94
-96,723
-93,359
-88,429
-82,405
-75,887
-69,507
-63,643
-58,49
-54,057
-50,155
-46,648
-43,453
-40,447
-37,517
-34,588
-31,602
-28,53
-25,399
-22,228
-19,037
-15,887
-12,809
-9,826
-6,978
-4,304
-1,855
0,303
2,117
3,554
4,59
5,209
5,408
5,178
4,539
3,529
2,201
0,635
-1,098
-2,944
-4,843
-6,725
-8,521
-10,148
-11,527
-12,615
-13,375
-13,776
-13,805
-13,444
-12,684
-11,533
-9,999
-8,096
-5,846
-3,263
-0,365
2,811
6,224
9,819
13,529
17,309
21,127
24,95
28,762
32,543
36,269
39,923
43,485
46,926
50,224
53,362
56,317
59,089
61,684
64,116
66,422
68,622
70,729
72,751
74,687
76,531
78,286
79,95
81,516
82,99
84,375
85,672
86,885
88,009
89,032
89,941
90,711
91,321
91,756
92,007
92,067
91,937
91,615
91,102
90,407
89,532
88,482
87,261
85,87
84,317
82,608
80,754
78,767
76,659
74,443
72,128
69,727
67,249
64,703
62,098
59,44
56,736
53,995
51,225
48,436
45,637
42,836
40,042
37,264
34,51
31,788
29,105
26,465
23,876
21,341
18,867
16,457
14,115
11,846
9,65
7,532
5,493
3,535
1,658
-0,137
-1,848
-3,477
-5,024
-6,488
-7,871
-9,174
-10,397
-11,542
-12,61
-13,604
-14,525
-15,375
-16,158
-16,876
-17,532
-18,128
-18,668
-19,154
-19,588
-19,974
-20,312
-20,605
-20,854
-21,061
-21,228
-21,355
-21,444
-21,497
-21,513
-21,494
-21,442
-21,355
-21,237
-21,087
-20,906
-20,695
-20,455
-20,186
-19,89
-19,567
-19,217
-18,843
-18,444
-18,02
-17,574
-17,105
-16,615
-16,104
-15,574
-15,026
-14,461
-13,882
-13,29
-12,689
-12,08
-11,467
-10,853
-10,24
-9,633
-9,035
-8,448
-7,877
-7,324
-6,793
-6,287
-5,809
-5,36
-4,945
-4,564
-4,221
-3,916
-3,651
-3,428
-3,247
-3,109
-3,015
-2,964
-2,957
-2,992
-3,071
-3,192
-3,355
-3,557
-3,798
-4,076
-4,388
-4,733
-5,106
-5,505
-5,926
-6,366
-6,822
-7,288
-7,762
-8,241
-8,72
-9,196
-9,667
-10,13
-10,582
-11,022
-11,447
-11,856
-12,248
-12,623
-12,98
-13,32
-13,644
-13,951
-14,243
-14,519
-14,782
-15,031
-15,267
-15,489
-15,697
-15,891
-16,072
-16,241
-16,398
-16,545
-16,683
-16,814
-16,942
-17,068
-17,193
-17,316
-17,437
-17,556
-17,671
-17,78
-17,88
-17,969
-18,042
-18,099
-18,137
-18,154
-18,145
-18,1
-18,016
-17,893
-17,732
-17,536
-17,313
-17,068
-16,813
-16,565
-16,342
-16,156
-16,019
-15,929
-15,884
-15,887
-15,938
-16,043
-16,196
-16,378
-16,567
-16,74
-16,87
-16,933
-16,897
-16,715
-16,351
-15,778
-14,979
-13,96
-12,737
-11,315
-9,701
-7,898
-5,926
-3,826
-1,657
0,535
2,704
4,807
6,796
8,61
10,193
11,509
12,538
13,278
13,741
13,918
13,765
13,236
12,302
10,963
9,272
7,256
4,898
2,185
-0,913
-4,418
-8,293
-12,583
-17,426
-22,839
-28,733
-34,852
-40,628
-45,527
-49,229
-51,293
-51,289
-49,233
-45,35
-40,439
-36,085
-33,605
-33,949
-38,134
-46,676
-59,058
-74,136
-89,534
-101,602
-106,948
-102,211
-83,956
-49,615
0,263
62,376
132,909
206,409
282,11
363,554
447,065
526,644
590,251
616,593
596,818
529,942
420,128
288,658
153,725
31,595
-57,56
-109,289
-125,997
-115,992
-97,874
-81,897
-71,696
-66,89
-60,984
-52,443
-43,507
-36,317
-34,157
-37,473
-44,257
-52,947
-61,655
-68,697
-73,522
-75,838
-75,605
-73,346
-69,647
-65,021
-60,12
-55,547
-51,581
-48,342
-45,825
-43,878
-42,394
-41,297
-40,464
-39,784
-39,198
-38,69
-38,267
-37,928
-37,645
-37,364
-37,052
-36,727
-36,427
-36,184
-36,027
-35,963
-35,998
-36,158
-36,45
-36,862
-37,362
-37,888
-38,401
-38,89
-39,349
-39,774
-40,147
-40,419
-40,546
-40,5
-40,258
-39,802
-39,121
-38,191
-37,011
-35,605
-34,01
-32,28
-30,453
-28,545
-26,574
-24,551
-22,497
-20,438
-18,393
-16,365
-14,361
-12,385
-10,443
-8,548
-6,698
-4,88
-3,075
-1,264
0,568
2,424
4,307
6,219
8,159
10,127
12,115
14,11
16,102
18,083
20,044
21,98
23,882
25,737
27,531
29,255
30,895
32,445
33,895
35,235
36,46
37,563
38,54
39,389
40,107
40,689
41,132
41,433
41,59
41,6
41,462
41,174
40,736
40,148
39,411
38,528
37,501
36,333
35,029
33,593
32,03
30,346
28,545
26,634
24,62
22,508
20,306
18,02
15,658
13,227
10,733
8,185
5,589
2,953
0,283
-2,414
-5,132
-7,863
-10,602
-13,342
-16,077
-18,801
-21,508
-24,192
-26,848
-29,469
-32,051
-34,59
-37,08
-39,518
-41,899
-44,221
-46,479
-48,67
-50,792
-52,84
-54,813
-56,707
-58,521
-60,252
-61,899
-63,46
-64,934
-66,32
-67,618
-68,825
-69,943
-70,97
-71,906
-72,752
-73,507
-74,172
-74,747
-75,234
-75,633
-75,947
-76,176
-76,324
-76,39
-76,379
-76,291
-76,13
-75,898
-75,597
-75,231
-74,804
-74,317
-73,776
-73,184
-72,543
-71,859
-71,134
-70,372
-69,577
-68,752
-67,901
-67,027
-66,134
-65,225
-64,305
-63,375
-62,44
-61,503
-60,566
-59,634
-58,708
-57,791
-56,886
-55,995
-55,12
-54,264
-53,428
-52,614
-51,824
-51,059
-50,32
-49,607
-48,922
-48,264
-47,634
-47,031
-46,456
-45,908
-45,386
-44,89
-44,42
-43,973
-43,551
-43,151
-42,773
-42,416
-42,08
-41,762
-41,463
-41,181
-40,915
-40,663
-40,425
-40,198
-39,98
-39,771
-39,567
-39,368
-39,171
-38,975
-38,779
-38,58
-38,378
-38,171
-37,957
-37,736
-37,507
-37,268
-37,018
-36,757
-36,485
-36,201
-35,905
-35,597
-35,274
-34,938
-34,586
-34,217
-33,83
-33,421
-32,989
-32,533
-32,051
-31,542
-31,006
-30,442
-29,852
-29,237
-28,6
-27,941
-27,262
-26,561
-25,84
-25,097
-24,333
-23,548
-22,74
-21,91
-21,06
-20,196
-19,321
-18,438
-17,547
-16,644
-15,73
-14,809
-13,885
-12,962
-12,047
-11,149
-10,285
-9,48
-8,759
-8,135
-7,616
-7,195
-6,867
-6,627
-6,47
-6,389
-6,373
-6,407
-6,475
-6,575
-6,697
-6,822
-6,909
-6,891
-6,7
-6,291
-5,636
-4,725
-3,556
-2,13
-0,454
1,449
3,542
5,791
8,172
10,678
13,298
16,002
18,713
21,298
23,615
25,549
27,014
27,966
28,354
28,114
27,205
25,602
23,296
20,321
16,63
12,091
6,701
0,576
-5,981
-12,346
-17,936
-22,354
-25,062
-25,563
-23,822
-19,99
-14,825
-9,908
-6,557
-5,816
-8,844
-16,166
-27,218
-41,073
-55,633
-67,171
-72,272
-67,525
-48,923
-15,243
31,35
89,117
154,99
227,303
310,017
402,42
496,738
581,247
636,827
647,229
609,41
526,555
408,091
271,88
132,582
6,771
-85,442
-137,21
-149,908
-134,136
-110,792
-91,734
-80,671
-75,865
-69,652
-59,988
-49,199
-39,744
-34,922
-35,034
-37,977
-42,149
-45,793
-47,472
-46,824
-43,765
-38,496
-31,697
-24,064
-16,169
-8,632
-2,029
3,347
7,351
9,965
11,325
11,555
10,769
9,138
6,856
4,098
1,042
-2,157
-5,374
-8,482
-11,373
-13,973
-16,228
-18,105
-19,58
-20,627
-21,219
-21,346
-21,017
-20,257
-19,111
-17,643
-15,933
-14,063
-12,11
-10,14
-8,195
-6,305
-4,485
-2,74
-1,07
0,524
2,037
3,469
4,817
6,088
7,295
8,457
9,601
10,758
11,951
13,203
14,529
15,936
17,43
19,01
20,672
22,412
24,229
26,121
28,09
30,135
32,253
34,439
36,688
38,992
41,341
43,729
46,145
48,581
51,028
53,479
55,926
58,362
60,779
63,167
65,516
67,815
70,053
72,218
74,3
76,285
78,164
79,926
81,56
83,058
84,412
85,612
86,653
87,527
88,228
88,751
89,092
89,245
89,209
88,981
88,559
87,944
87,135
86,136
84,949
83,577
82,026
80,3
78,405
76,346
74,13
71,764
69,257
66,615
63,849
60,966
57,978
54,894
51,723
48,476
45,162
41,79
38,368
34,906
31,413
27,896
24,364
20,826
17,29
13,764
10,257
6,777
3,33
-0,075
-3,432
-6,736
-9,981
-13,162
-16,276
-19,317
-22,282
-25,167
-27,97
-30,685
-33,308
-35,834
-38,259
-40,58
-42,795
-44,903
-46,9
-48,785
-50,555
-52,212
-53,755
-55,182
-56,485
-57,657
-58,697
-59,609
-60,403
-61,085
-61,66
-62,134
-62,516
-62,82
-63,054
-63,217
-63,299
-63,289
-63,181
-62,982
-62,704
-62,36
-61,953
-61,477
-60,92
-60,282
-59,559
-58,746
-57,823
-56,766
-55,567
-54,245
-52,842
-51,397
-49,937
-48,475
-47,013
-45,561
-44,134
-42,759
-41,454
-40,229
-39,098
-38,085
-37,231
-36,584
-36,166
-35,963
-35,932
-36,033
-36,244
-36,552
-36,951
-37,425
-37,952
-38,517
-39,112
-39,737
-40,384
-41,031
-41,64
-42,17
-42,601
-42,94
-43,217
-43,454
-43,664
-43,852
-44,024
-44,194
-44,375
-44,57
-44,772
-44,972
-45,169
-45,37
-45,593
-45,856
-46,166
-46,518
-46,901
-47,306
-47,727
-48,161
-48,602
-49,04
-49,469
-49,887
-50,301
-50,715
-51,128
-51,538
-51,938
-52,321
-52,683
-53,021
-53,332
-53,613
-53,86
-54,068
-54,235
-54,359
-54,437
-54,463
-54,43
-54,331
-54,159
-53,91
-53,579
-53,159
-52,647
-52,039
-51,331
-50,525
-49,619
-48,615
-47,512
-46,312
-45,018
-43,634
-42,163
-40,608
-38,971
-37,258
-35,473
-33,624
-31,72
-29,769
-27,781
-25,765
-23,729
-21,685
-19,638
-17,594
-15,556
-13,531
-11,53
-9,57
-7,67
-5,844
-4,11
-2,479
-0,957
0,451
1,751
2,962
4,101
5,185
6,231
7,242
8,229
9,204
10,188
11,209
12,299
13,476
14,768
16,191
17,734
19,372
21,055
22,707
24,269
25,679
26,857
27,735
28,239
28,279
27,801
26,719
24,874
22,205
18,75
14,648
10,279
6,076
2,386
-0,315
-1,448
-0,778
1,587
5,193
8,891
11,471
12,035
9,463
2,73
-8,25
-22,643
-38,839
-53,951
-64,63
-67,813
-59,814
-36,826
1,726
53,306
115,393
183,811
258,22
343,191
435,457
526,598
602,299
641,176
633,088
578,659
484,749
367,337
240,645
117,365
13,242
-60,633
-99,173
-105,75
-94,236
-77,92
-64,917
-57,039
-49,3
-39,098
-27,463
-16,683
-10,652
-10,696
-15,261
-22,601
-30,602
-37,231
-41,694
-43,686
-43,05
-40,283
-36,04
-30,867
-25,478
-20,602
-16,602
-13,631
-11,732
-10,722
-10,448
-10,823
-11,684
-12,872
-14,281
-15,815
-17,407
-19,011
-20,545
-21,907
-23,022
-23,837
-24,329
-24,499
-24,349
-23,889
-23,139
-22,129
-20,892
-19,455
-17,845
-16,088
-14,217
-12,269
-10,289
-8,32
-6,394
-4,531
-2,745
-1,036
0,595
2,156
3,658
5,118
6,549
7,961
9,363
10,763
12,171
13,597
15,054
16,551
18,099
19,703
21,37
23,104
24,906
26,778
28,717
30,721
32,787
34,913
37,096
39,335
41,626
43,966
46,349
48,773
51,232
53,718
56,225
58,745
61,27
63,789
66,295
68,776
71,224
73,625
75,971
78,25
80,45
82,56
84,569
86,465
88,239
89,88
91,38
92,728
93,919
94,945
95,799
96,478
96,977
97,292
97,422
97,363
97,116
96,681
96,057
95,245
94,249
93,07
91,712
90,179
88,475
86,607
84,579
82,399
80,074
77,611
75,018
72,304
69,477
66,549
63,528
60,424
57,248
54,009
50,718
47,385
44,019
40,631
37,228
33,821
30,417
27,026
23,654
20,311
17,002
13,736
10,518
7,356
4,255
1,222
-1,738
-4,618
-7,415
-10,122
-12,735
-15,25
-17,662
-19,968
-22,165
-24,249
-26,218
-28,071
-29,806
-31,422
-32,92
-34,299
-35,559
-36,703
-37,731
-38,645
-39,447
-40,14
-40,726
-41,209
-41,591
-41,877
-42,069
-42,171
-42,188
-42,125
-41,985
-41,774
-41,497
-41,159
-40,766
-40,324
-39,839
-39,317
-38,765
-38,188
-37,594
-36,988
-36,376
-35,766
-35,161
-34,568
-33,992
-33,436
-32,905
-32,402
-31,931
-31,494
-31,093
-30,731
-30,407
-30,124
-29,881
-29,68
-29,518
-29,397
-29,315
-29,27
-29,261
-29,286
-29,343
-29,43
-29,544
-29,681
-29,838
-30,013
-30,2
-30,398
-30,601
-30,806
-31,009
-31,207
-31,395
-31,571
-31,731
-31,874
-31,997
-32,099
-32,179
-32,236
-32,271
-32,282
-32,272
-32,241
-32,191
-32,124
-32,042
-31,947
-31,843
-31,732
-31,618
-31,503
-31,391
-31,285
-31,188
-31,104
-31,034
-30,983
-30,952
-30,944
-30,961
-31,006
-31,079
-31,183
-31,318
-31,484
-31,682
-31,91
-32,167
-32,451
-32,759
-33,089
-33,435
-33,793
-34,16
-34,529
-34,895
-35,251
-35,591
-35,91
-36,2
-36,455
-36,669
-36,835
-36,948
-37,003
-36,994
-36,919
-36,774
-36,556
-36,266
-35,902
-35,466
-34,959
-34,384
-33,744
-33,042
-32,283
-31,471
-30,61
-29,706
-28,766
-27,797
-26,807
-25,806
-24,804
-23,813
-22,844
-21,906
-21,006
-20,152
-19,35
-18,608
-17,941
-17,362
-16,88
-16,508
-16,255
-16,13
-16,137
-16,271
-16,512
-16,842
-17,239
-17,685
-18,171
-18,683
-19,204
-19,716
-20,19
-20,601
-20,934
-21,166
-21,275
-21,247
-21,077
-20,804
-20,5
-20,237
-20,081
-20,074
-20,248
-20,665
-21,396
-22,511
-24,101
-26,206
-28,885
-32,28
-36,425
-41,245
-46,534
-51,816
-56,56
-60,396
-62,834
-63,314
-61,734
-58,259
-53,461
-48,665
-44,998
-43,214
-44,413
-49,461
-58,137
-69,546
-81,69
-91,199
-95,345
-91,655
-76,608
-47,266
-2,25
57,221
126,495
199,938
273,858
348,642
425,358
500,428
565,939
607,701
610,979
570,326
487,042
371,083
240,306
112,168
4,29
-70,307
-108,775
-116,909
-108,042
-94,83
-84,385
-77,731
-70,413
-60,334
-48,659
-37,764
-31,482
-31,167
-35,38
-42,427
-50,199
-56,639
-60,96
-62,895
-62,31
-59,712
-55,759
-50,973
-46,059
-41,752
-38,402
-36,159
-35,057
-34,891
-35,49
-36,749
-38,48
-40,51
-42,713
-44,96
-47,155
-49,226
-51,068
-52,594
-53,747
-54,48
-54,785
-54,67
-54,143
-53,234
-51,983
-50,426
-48,604
-46,553
-44,308
-41,916
-39,426
-36,891
-34,368
-31,897
-29,507
-27,222
-25,054
-23,007
-21,081
-19,266
-17,547
-15,914
-14,358
-12,869
-11,443
-10,068
-8,731
-7,422
-6,129
-4,84
-3,548
-2,245
-0,923
0,422
1,794
3,196
4,63
6,099
7,609
9,165
10,77
12,428
14,142
15,911
17,736
19,613
21,539
23,51
25,519
27,562
29,631
31,721
33,825
35,935
38,039
40,124
42,173
44,171
46,104
47,962
49,739
51,433
53,044
54,575
56,03
57,411
58,711
59,919
61,016
61,979
62,79
63,434
63,908
64,208
64,326
64,251
63,971
63,464
62,701
61,65
60,273
58,544
56,454
54,014
51,258
48,227
44,977
41,548
37,975
34,287
30,513
26,684
22,834
19,005
15,245
11,615
8,188
5,02
2,148
-0,417
-2,691
-4,707
-6,516
-8,158
-9,666
-11,065
-12,374
-13,609
-14,784
-15,918
-17,032
-18,16
-19,351
-20,643
-22,063
-23,619
-25,297
-27,071
-28,899
-30,745
-32,58
-34,38
-36,131
-37,826
-39,46
-41,032
-42,541
-43,979
-45,327
-46,572
-47,7
-48,706
-49,596
-50,381
-51,077
-51,703
-52,271
-52,795
-53,28
-53,728
-54,14
-54,512
-54,838
-55,115
-55,343
-55,525
-55,664
-55,76
-55,814
-55,825
-55,791
-55,709
-55,577
-55,392
-55,152
-54,858
-54,509
-54,109
-53,661
-53,167
-52,629
-52,052
-51,436
-50,783
-50,097
-49,378
-48,63
-47,854
-47,054
-46,233
-45,395
-44,544
-43,684
-42,818
-41,95
-41,083
-40,221
-39,366
-38,52
-37,685
-36,863
-36,055
-35,262
-34,486
-33,727
-32,986
-32,265
-31,564
-30,884
-30,226
-29,591
-28,98
-28,393
-27,83
-27,293
-26,78
-26,294
-25,834
-25,401
-24,994
-24,614
-24,259
-23,931
-23,627
-23,347
-23,09
-22,855
-22,641
-22,448
-22,277
-22,127
-22
-21,896
-21,816
-21,762
-21,735
-21,735
-21,763
-21,82
-21,905
-22,018
-22,159
-22,325
-22,516
-22,728
-22,961
-23,21
-23,474
-23,749
-24,033
-24,322
-24,615
-24,909
-25,198
-25,479
-25,748
-26,001
-26,236
-26,446
-26,628
-26,776
-26,885
-26,953
-26,975
-26,944
-26,85
-26,684
-26,439
-26,115
-25,712
-25,234
-24,687
-24,078
-23,421
-22,737
-22,04
-21,342
-20,65
-19,964
-19,292
-18,645
-18,041
-17,498
-17,022
-16,608
-16,25
-15,936
-15,646
-15,349
-14,997
-14,539
-13,937
-13,17
-12,237
-11,143
-9,89
-8,469
-6,865
-5,061
-3,061
-0,875
1,484
3,988
6,597
9,25
11,855
14,322
16,587
18,607
20,366
21,855
23,053
23,925
24,408
24,429
23,923
22,841
21,147
18,819
15,827
12,161
7,849
2,911
-2,618
-8,744
-15,579
-23,129
-31,27
-39,746
-48,062
-55,698
-62,295
-67,418
-70,498
-71,301
-69,928
-66,845
-63,255
-60,352
-58,88
-59,699
-63,646
-70,778
-80,381
-91,023
-99,978
-104,116
-100,777
-86,876
-59,055
-16,283
39,537
105,793
178,291
254,724
338,546
430,508
525,189
612,658
674,213
690,979
656,917
573,429
450,139
308,021
163,918
34,52
-60,909
-117,423
-136,516
-126,906
-108,035
-90,763
-79,296
-73,646
-67,177
-58,376
-49,645
-43,062
-41,929
-46,641
-54,972
-65,151
-75,097
-82,982
-88,208
-90,522
-89,967
-87,146
-82,737
-77,328
-71,614
-66,253
-61,552
-57,643
-54,533
-52,051
-50,075
-48,526
-47,281
-46,237
-45,347
-44,578
-43,913
-43,343
-42,825
-42,311
-41,779
-41,221
-40,653
-40,094
-39,549
-39,029
-38,547
-38,11
-37,718
-37,351
-36,966
-36,534
-36,047
-35,506
-34,921
-34,291
-33,6
-32,821
-31,931
-30,912
-29,752
-28,437
-26,952
-25,294
-23,474
-21,522
-19,486
-17,399
-15,279
-13,138
-10,981
-8,818
-6,667
-4,542
-2,449
-0,392
1,625
3,598
5,52
7,39
9,217
11,019
12,821
14,636
16,474
18,337
20,226
22,143
24,087
26,055
28,037
30,024
32,008
33,984
35,946
37,888
39,798
41,663
43,471
45,211
46,872
48,445
49,92
51,289
52,544
53,68
54,693
55,578
56,33
56,944
57,415
57,739
57,913
57,933
57,798
57,505
57,055
56,447
55,684
54,767
53,699
52,482
51,122
49,621
47,986
46,22
44,33
42,322
40,201
37,975
35,65
33,235
30,736
28,163
25,522
22,823
20,074
17,283
14,458
11,608
8,741
5,865
2,989
0,119
-2,735
-5,567
-8,37
-11,137
-13,861
-16,538
-19,162
-21,728
-24,232
-26,67
-29,037
-31,332
-33,55
-35,688
-37,744
-39,715
-41,598
-43,392
-45,096
-46,709
-48,229
-49,658
-50,995
-52,242
-53,399
-54,468
-55,452
-56,351
-57,169
-57,91
-58,575
-59,169
-59,694
-60,155
-60,555
-60,897
-61,185
-61,421
-61,608
-61,749
-61,846
-61,902
-61,919
-61,899
-61,845
-61,758
-61,642
-61,497
-61,327
-61,133
-60,916
-60,678
-60,42
-60,143
-59,849
-59,538
-59,209
-58,864
-58,503
-58,124
-57,728
-57,313
-56,88
-56,427
-55,953
-55,458
-54,94
-54,4
-53,838
-53,253
-52,647
-52,02
-51,374
-50,71
-50,028
-49,332
-48,624
-47,904
-47,176
-46,442
-45,703
-44,962
-44,221
-43,484
-42,753
-42,029
-41,316
-40,617
-39,934
-39,271
-38,63
-38,014
-37,426
-36,867
-36,342
-35,853
-35,401
-34,988
-34,617
-34,288
-34,003
-33,762
-33,565
-33,411
-33,299
-33,228
-33,196
-33,201
-33,241
-33,313
-33,413
-33,541
-33,692
-33,864
-34,053
-34,257
-34,471
-34,692
-34,917
-35,14
-35,356
-35,562
-35,752
-35,924
-36,072
-36,194
-36,287
-36,347
-36,375
-36,367
-36,322
-36,236
-36,108
-35,935
-35,718
-35,454
-35,143
-34,782
-34,372
-33,916
-33,416
-32,872
-32,283
-31,646
-30,96
-30,229
-29,459
-28,657
-27,831
-26,992
-26,156
-25,349
-24,593
-23,907
-23,304
-22,796
-22,392
-22,107
-21,957
-21,95
-22,081
-22,338
-22,704
-23,166
-23,696
-24,255
-24,786
-25,22
-25,494
-25,559
-25,363
-24,856
-23,985
-22,7
-20,961
-18,755
-16,09
-12,986
-9,471
-5,577
-1,364
3,077
7,626
12,158
16,555
20,703
24,461
27,666
30,156
31,792
32,48
32,157
30,762
28,252
24,585
19,742
13,786
6,767
-1,294
-10,267
-19,949
-29,991
-39,758
-48,607
-56,031
-61,409
-64,187
-64,253
-61,668
-57,056
-51,803
-47,131
-44,121
-44,025
-47,507
-54,213
-63,402
-73,142
-80,032
-80,932
-72,489
-50,738
-14,163
35,559
96,549
165,335
239,573
322,565
414,409
508,753
595,529
656,654
674,162
642,555
562,214
440,43
296,83
148,43
13,634
-85,665
-143,158
-159,556
-141,011
-104,328
-60,632
-18,489
11,383
24,606
19,536
-0,893
-25,603
-45,286
-55,293
-55,829
-53,07
-51,383
-51,599
-52,858
-52,41
-49,176
-43,996
-37,731
-31,416
-25,711
-20,611
-16,127
-12,312
-9,039
-6,232
-3,89
-1,982
-0,502
0,53
1,111
1,243
0,922
0,178
-0,912
-2,267
-3,835
-5,605
-7,602
-9,848
-12,334
-15,027
-17,887
-20,855
-23,866
-26,839
-29,664
-32,232
-34,466
-36,315
-37,754
-38,76
-39,282
-39,257
-38,609
-37,27
-35,197
-32,355
-28,716
-24,274
-19,058
-13,13
-6,589
0,453
7,898
15,66
23,653
31,779
39,932
48,005
55,897
63,513
70,75
77,496
83,64
89,087
93,781
97,695
100,821
103,17
104,763
105,626
105,817
105,422
104,518
103,175
101,47
99,472
97,289
95,056
92,897
90,928
89,256
87,971
87,18
86,982
87,441
88,607
90,502
93,106
96,413
100,415
105,078
110,362
116,198
122,47
129,08
135,931
142,892
149,828
156,574
162,947
168,804
174,017
178,451
182,011
184,606
186,149
186,6
185,928
184,11
181,169
177,131
172,027
165,948
159,008
151,343
143,128
134,517
125,657
116,729
107,893
99,288
91,046
83,264
76,025
69,434
63,562
58,456
54,156
50,647
47,892
45,843
44,418
43,525
43,079
42,961
43,052
43,266
43,524
43,762
43,929
43,949
43,761
43,328
42,622
41,639
40,391
38,89
37,167
35,27
33,248
31,165
29,088
27,062
25,121
23,292
21,593
20,052
18,694
17,529
16,561
15,788
15,208
14,817
14,61
14,568
14,669
14,885
15,186
15,55
15,961
16,404
16,868
17,343
17,818
18,29
18,76
19,229
19,694
20,148
20,582
20,987
21,358
21,693
21,993
22,256
22,488
22,697
22,898
23,115
23,362
23,646
23,967
24,314
24,676
25,044
25,41
25,766
26,109
26,427
26,712
26,961
27,154
27,261
27,235
27,001
26,499
25,689
24,547
23,067
21,269
19,18
16,839
14,306
11,631
8,868
6,075
3,296
0,588
-1,972
-4,287
-6,228
-7,66
-8,484
-8,621
-8,015
-6,658
-4,563
-1,778
1,607
5,499
9,8
14,398
19,188
24,076
28,945
33,66
38,063
41,969
45,219
47,682
49,245
49,839
49,432
48,031
45,691
42,497
38,547
33,96
28,858
23,337
17,502
11,474
5,391
-0,568
-6,237
-11,479
-16,164
-20,178
-23,442
-25,898
-27,525
-28,351
-28,421
-27,788
-26,51
-24,612
-22,112
-19,045
-15,467
-11,465
-7,129
-2,524
2,274
7,178
12,104
16,979
21,749
26,41
30,967
35,41
39,716
43,828
47,672
51,185
54,324
57,054
59,335
61,125
62,397
63,154
63,41
63,171
62,416
61,064
59,033
56,268
52,745
48,487
43,53
37,886
31,57
24,606
17,031
8,913
0,277
-8,954
-18,769
-29,036
-39,477
-49,552
-58,686
-66,445
-72,341
-75,803
-76,57
-74,725
-70,699
-65,652
-60,872
-57,294
-55,96
-57,85
-63,119
-71,062
-80,301
-88,174
-91,381
-86,994
-71,715
-42,012
3,046
61,435
130,869
207,358
288,456
376,711
470,725
563,505
645,084
698,624
709,088
673,23
592,745
475,193
337,654
194,301
61,682
-39,272
-101,047
-123,665
-116,177
-99,375
-85,517
-79,337
-80,322
-80,74
-78,102
-74,292
-71,285
-72,51
-78,486
-87,074
-96,628
-105,273
-111,443
-114,774
-115,192
-112,848
-108,402
-102,574
-95,977
-89,304
-83,209
-77,998
-73,783
-70,564
-68,156
-66,412
-65,231
-64,443
-63,888
-63,449
-63,02
-62,531
-61,954
-61,232
-60,305
-59,152
-57,746
-56,112
-54,323
-52,43
-50,498
-48,591
-46,76
-45,067
-43,575
-42,322
-41,338
-40,648
-40,251
-40,142
-40,305
-40,687
-41,243
-41,916
-42,624
-43,305
-43,901
-44,355
-44,627
-44,681
-44,482
-44,017
-43,279
-42,262
-40,978
-39,445
-37,688
-35,755
-33,687
-31,518
-29,285
-27,014
-24,726
-22,442
-20,172
-17,918
-15,685
-13,475
-11,283
-9,114
-6,965
-4,831
-2,705
-0,574
1,572
3,732
5,904
8,082
10,257
12,418
14,551
16,634
18,649
20,581
22,412
24,13
25,72
27,168
28,46
29,582
30,522
31,271
31,82
32,162
32,292
32,205
31,9
31,377
30,638
29,682
28,514
27,134
25,548
23,762
21,782
19,616
17,273
14,764
12,102
9,298
6,366
3,321
0,177
-3,053
-6,352
-9,706
-13,102
-16,525
-19,962
-23,4
-26,826
-30,231
-33,602
-36,93
-40,207
-43,424
-46,575
-49,652
-52,651
-55,567
-58,397
-61,136
-63,783
-66,337
-68,796
-71,16
-73,431
-75,61
-77,698
-79,699
-81,615
-83,451
-85,211
-86,898
-88,518
-90,074
-91,571
-93,014
-94,406
-95,75
-97,051
-98,309
-99,529
-100,711
-101,855
-102,964
-104,035
-105,069
-106,064
-107,018
-107,93
-108,796
-109,614
-110,381
-111,095
-111,752
-112,349
-112,884
-113,354
-113,757
-114,09
-114,352
-114,539
-114,652
-114,688
-114,648
-114,53
-114,335
-114,063
-113,717
-113,297
-112,807
-112,249
-111,628
-110,947
-110,211
-109,428
-108,604
-107,746
-106,863
-105,962
-105,054
-104,149
-103,255
-102,383
-101,542
-100,74
-99,988
-99,292
-98,661
-98,1
-97,614
-97,209
-96,888
-96,656
-96,515
-96,466
-96,512
-96,655
-96,894
-97,228
-97,657
-98,175
-98,779
-99,462
-100,218
-101,041
-101,922
-102,851
-103,818
-104,815
-105,831
-106,853
-107,867
-108,85
-109,788
-110,671
-111,488
-112,234
-112,908
-113,51
-114,048
-114,538
-114,993
-115,424
-115,835
-116,222
-116,585
-116,927
-117,254
-117,582
-117,913
-118,237
-118,54
-118,805
-119,003
-119,097
-119,032
-118,727
-118,126
-117,186
-115,883
-114,221
-112,203
-109,826
-107,097
-104,015
-100,592
-96,863
-92,868
-88,645
-84,267
-79,818
-75,411
-71,199
-67,297
-63,785
-60,729
-58,146
-56,056
-54,486
-53,452
-52,988
-53,138
-53,925
-55,365
-57,455
-60,158
-63,438
-67,239
-71,471
-76,091
-81,057
-86,37
-92,159
-98,465
-105,194
-112,126
-118,788
-124,628
-129,249
-132,209
-132,937
-131,251
-127,397
-122,041
-116,682
-112,93
-111,914
-114,795
-122,614
-135,422
-152,244
-171,254
-189,1
-201,804
-205,889
-197,548
-172,848
-130,726
-73,476
-3,95
73,221
155,494
246,124
344,274
442,795
530,578
588,647
600,201
561,597
474,812
348,969
204,296
57,187
-73,677
-166,867
-218,818
-231,641
-214,538
-186,998
-155,386
-124,416
-99,939
-80,818
-73,538
-80,163
-93,716
-110,294
-122,454
-126,744
-127,762
-127,315
-127,13
-127,965
-127,116
-123,837
-118,907
-112,88
-106,949
-101,975
-97,96
-94,916
-92,917
-91,79
-91,369
-91,561
-92,2
-93,133
-94,299
-95,608
-96,949
-98,256
-99,432
-100,366
-100,981
-101,219
-101,044
-100,456
-99,461
-98,071
-96,317
-94,237
-91,877
-89,282
-86,492
-83,545
-80,482
-77,346
-74,177
-71,013
-67,879
-64,79
-61,76
-58,801
-55,925
-53,144
-50,465
-47,883
-45,39
-42,979
-40,647
-38,397
-36,232
-34,162
-32,203
-30,38
-28,724
-27,254
-25,978
-24,883
-23,943
-23,12
-22,368
-21,651
-20,943
-20,219
-19,458
-18,637
-17,731
-16,706
-15,524
-14,136
-12,485
-10,531
-8,252
-5,652
-2,758
0,383
3,708
7,159
10,692
14,269
17,857
21,426
24,942
28,363
31,65
34,757
37,63
40,226
42,516
44,481
46,134
47,502
48,622
49,524
50,221
50,709
50,984
51,046
50,899
50,556
50,019
49,286
48,365
47,256
45,962
44,48
42,788
40,841
38,612
36,094
33,301
30,283
27,077
23,706
20,194
16,556
12,818
9,02
5,191
1,359
-2,447
-6,196
-9,835
-13,288
-16,512
-19,488
-22,225
-24,77
-27,15
-29,375
-31,455
-33,399
-35,216
-36,928
-38,543
-40,055
-41,474
-42,811
-44,095
-45,38
-46,689
-48,025
-49,373
-50,689
-51,948
-53,136
-54,237
-55,235
-56,118
-56,872
-57,498
-58,009
-58,41
-58,696
-58,859
-58,874
-58,734
-58,439
-58,001
-57,438
-56,766
-55,994
-55,137
-54,209
-53,224
-52,191
-51,113
-49,985
-48,809
-47,588
-46,329
-45,043
-43,737
-42,416
-41,086
-39,752
-38,419
-37,093
-35,778
-34,477
-33,195
-31,936
-30,708
-29,518
-28,372
-27,275
-26,234
-25,252
-24,333
-23,482
-22,7
-21,989
-21,35
-20,785
-20,293
-19,872
-19,521
-19,237
-19,015
-18,851
-18,741
-18,68
-18,66
-18,673
-18,716
-18,778
-18,852
-18,924
-18,979
-19,001
-18,983
-18,917
-18,798
-18,627
-18,403
-18,134
-17,834
-17,517
-17,195
-16,874
-16,552
-16,231
-15,916
-15,615
-15,343
-15,108
-14,902
-14,716
-14,538
-14,346
-14,11
-13,783
-13,291
-12,569
-11,565
-10,245
-8,598
-6,619
-4,294
-1,619
1,404
4,759
8,412
12,318
16,441
20,731
25,115
29,489
33,71
37,635
41,16
44,205
46,723
48,676
50,027
50,751
50,85
50,34
49,247
47,6
45,395
42,621
39,304
35,497
31,307
26,868
22,264
17,517
12,638
7,618
2,437
-2,875
-8,384
-14,252
-20,484
-26,953
-33,343
-39,061
-43,602
-46,695
-47,946
-46,913
-43,594
-38,242
-31,686
-25,538
-21,077
-19,106
-20,518
-25,864
-34,721
-45,962
-57,256
-64,968
-65,755
-56,68
-34,648
3,011
56,14
121,851
196,413
274,43
354,512
439,763
527,639
611,873
680,509
714,787
705,375
652,141
560,94
446,955
323,902
204,077
102,342
28,421
-13,416
-26,28
-23,055
-15,871
-11,478
-11,198
-10,036
-5,027
2,37
9,575
12,992
11,184
5,438
-2,626
-11,439
-19,505
-25,697
-29,415
-30,421
-28,924
-25,555
-20,915
-15,487
-9,852
-4,571
0,075
3,948
7,083
9,681
11,867
13,734
15,413
17,01
18,613
20,295
22,073
23,94
25,915
27,996
30,188
32,494
34,864
37,242
39,579
41,809
43,882
45,752
47,366
48,692
49,706
50,391
50,757
50,826
50,625
50,214
49,64
48,948
48,21
47,482
46,814
46,262
45,862
45,641
45,628
45,84
46,278
46,945
47,828
48,901
50,132
51,472
52,879
54,321
55,761
57,174
58,541
59,845
61,078
62,244
63,342
64,375
65,35
66,27
67,145
67,987
68,81
69,635
70,475
71,339
72,23
73,15
74,094
75,056
76,026
76,987
77,925
78,827
79,677
80,465
81,178
81,804
82,328
82,739
83,025
83,176
83,185
83,045
82,748
82,291
81,67
80,884
79,932
78,812
77,524
76,068
74,445
72,657
70,709
68,602
66,343
63,938
61,395
58,724
55,934
53,036
50,042
46,965
43,818
40,613
37,366
34,089
30,796
27,5
24,214
20,95
17,721
14,538
11,412
8,352
5,37
2,473
-0,329
-3,029
-5,62
-8,094
-10,447
-12,673
-14,767
-16,726
-18,547
-20,227
-21,766
-23,162
-24,416
-25,529
-26,504
-27,342
-28,047
-28,624
-29,076
-29,41
-29,63
-29,741
-29,75
-29,662
-29,483
-29,218
-28,873
-28,454
-27,965
-27,411
-26,799
-26,134
-25,419
-24,661
-23,863
-23,031
-22,169
-21,281
-20,373
-19,447
-18,508
-17,56
-16,606
-15,651
-14,697
-13,748
-12,805
-11,872
-10,95
-10,042
-9,149
-8,273
-7,415
-6,576
-5,759
-4,964
-4,193
-3,448
-2,73
-2,039
-1,378
-0,748
-0,148
0,42
0,955
1,459
1,93
2,37
2,778
3,157
3,508
3,831
4,131
4,408
4,667
4,909
5,138
5,358
5,573
5,785
5,999
6,218
6,447
6,689
6,948
7,23
7,539
7,879
8,255
8,672
9,134
9,646
10,212
10,835
11,518
12,266
13,08
13,962
14,914
15,937
17,031
18,196
19,429
20,731
22,097
23,524
25,008
26,545
28,128
29,753
31,412
33,1
34,808
36,531
38,258
39,983
41,696
43,388
45,05
46,67
48,24
49,748
51,186
52,543
53,81
54,978
56,038
56,982
57,804
58,494
59,048
59,458
59,719
59,827
59,78
59,574
59,208
58,683
57,999
57,159
56,166
55,022
53,731
52,299
50,731
49,034
47,214
45,281
43,243
41,111
38,897
36,613
34,272
31,886
29,469
27,032
24,589
22,15
19,728
17,331
14,973
12,665
10,421
8,255
